经度(°),纬度(°),高度(m),滚转(°),俯仰(°),航向(°),滚转率(°/s),转弯率(°/s)
112.365013,41.001393,8854.26,0.8,-7.6,67.9,3.743346,0.389817
112.365172,41.001442,8852.04,0.9,-7.6,67.9,4.05348,0.375763
112.365322,41.001488,8849.92,1.1,-7.6,67.9,4.235302,0.36102
112.365473,41.001534,8847.79,1.2,-7.6,67.9,4.417124,0.346139
112.365623,41.001581,8845.67,1.3,-7.6,67.9,4.598946,0.330693
112.365775,41.001627,8843.52,1.4,-7.6,67.9,4.475709,0.317662
112.365927,41.001674,8841.37,1.4,-7.6,67.9,4.350714,0.304311
112.366078,41.00172,8839.22,1.5,-7.6,67.9,4.225718,0.291066
112.36623,41.001767,8837.07,1.5,-7.6,67.9,4.100721,0.281893
112.366374,41.001811,8835.03,1.6,-7.6,67.9,3.935254,0.275086
112.366484,41.001845,8833.46,1.6,-7.6,67.9,3.601919,0.268301
112.366595,41.001879,8831.89,1.7,-7.6,67.9,3.268584,0.261272
112.366705,41.001913,8830.32,1.7,-7.6,67.9,2.935249,0.254135
112.366859,41.00196,8828.14,1.7,-7.6,67.9,2.619923,0.244679
112.367041,41.002016,8825.54,1.7,-7.6,67.9,2.316893,0.23319
112.367223,41.002072,8822.94,1.8,-7.6,67.9,2.013864,0.221915
112.367404,41.002127,8820.37,1.8,-7.6,67.9,1.728667,0.211196
112.367579,41.002181,8817.86,1.8,-7.6,67.9,1.486243,0.201454
112.367755,41.002235,8815.35,1.8,-7.6,67.9,1.243818,0.193197
112.36793,41.002289,8812.84,1.8,-7.6,67.9,1.001394,0.184887
112.368076,41.002334,8810.75,1.8,-7.6,67.9,0.875719,0.179554
112.368222,41.002378,8808.66,1.8,-7.6,67.9,0.750719,0.173815
112.368368,41.002423,8806.57,1.8,-7.6,67.9,0.625719,0.167693
112.368513,41.002468,8804.48,1.8,-7.6,67.9,0.500719,0.161963
112.368654,41.002511,8802.47,1.8,-7.6,67.9,0.389209,0.156244
112.368773,41.002548,8800.76,1.8,-7.6,67.9,0.333653,0.15089
112.368892,41.002584,8799.05,1.8,-7.6,67.9,0.278098,0.145559
112.369011,41.002621,8797.34,1.8,-7.5,67.9,0.222542,0.141045
112.36913,41.002657,8795.63,1.8,-7.5,67.9,0.163985,0.136642
112.369254,41.002695,8793.85,1.8,-7.5,67.9,0.103379,0.132092
112.369421,41.002746,8791.45,1.8,-7.5,67.9,0.042774,0.125323
112.369588,41.002798,8789.04,1.8,-7.5,68.0,0.0,0.119409
112.369755,41.002849,8786.63,1.8,-7.5,68.0,0.0,0.114957
112.369922,41.0029,8784.24,1.8,-7.5,68.0,0.0,0.110185
112.370088,41.002951,8781.84,1.8,-7.5,68.0,0.0,0.105665
112.370254,41.003002,8779.45,1.8,-7.5,68.0,0.0,0.102493
112.37041,41.00305,8777.2,1.8,-7.5,68.0,0.0,0.099053
112.370556,41.003094,8775.1,1.8,-7.5,68.0,0.0,0.09514
112.370702,41.003139,8773.0,1.8,-7.5,68.0,0.0,0.091749
112.370852,41.003185,8770.83,1.8,-7.5,68.0,0.0,0.08821
112.371024,41.003238,8768.35,1.8,-7.5,68.0,0.0,0.084914
112.371196,41.003291,8765.87,1.8,-7.5,68.0,0.0,0.081909
112.371368,41.003343,8763.39,1.8,-7.5,68.0,0.0,0.079011
112.371505,41.003386,8761.4,1.8,-7.5,68.0,0.0,0.075618
112.37162,41.003421,8759.74,1.8,-7.5,68.0,0.0,0.072503
112.371735,41.003456,8758.09,1.8,-7.5,68.0,0.0,0.069145
112.371849,41.003491,8756.43,1.8,-7.5,68.0,0.0,0.0665
112.371964,41.003526,8754.78,1.8,-7.5,68.0,0.0,0.064361
112.372156,41.003585,8752.0,1.8,-7.5,68.0,0.0,0.061323
112.372368,41.00365,8748.93,1.8,-7.5,68.0,0.0,0.058527
112.372581,41.003715,8745.86,1.8,-7.5,68.0,0.0,0.056803
112.372743,41.003765,8743.51,1.8,-7.5,68.0,0.0,0.05499
112.372854,41.003799,8741.91,1.8,-7.5,68.0,0.0,0.053367
112.372965,41.003833,8740.3,1.8,-7.5,68.0,0.0,0.051527
112.373077,41.003867,8738.69,1.8,-7.5,68.0,0.0,0.050013
112.373188,41.003901,8737.08,1.8,-7.5,68.0,0.0,0.049073
112.373324,41.003943,8735.11,1.8,-7.5,68.0,0.0,0.04795
112.373499,41.003996,8732.59,1.8,-7.5,68.0,0.0,0.046092
112.373673,41.00405,8730.06,1.8,-7.5,68.0,0.0,0.04449
112.373849,41.004103,8727.52,1.8,-7.5,68.0,0.0,0.043057
112.374033,41.00416,8724.85,1.8,-7.5,68.0,0.0,0.042706
112.374218,41.004216,8722.18,1.8,-7.5,68.0,0.0,0.042251
112.374402,41.004273,8719.51,1.8,-7.5,68.0,0.0,0.041924
112.374568,41.004323,8717.12,1.8,-7.5,68.0,0.0,0.040891
112.374728,41.004373,8714.8,1.8,-7.5,68.0,0.0,0.039722
112.374888,41.004421,8712.48,1.8,-7.5,68.0,0.0,0.038561
112.375024,41.004463,8710.52,1.8,-7.5,68.0,0.0,0.037676
112.375134,41.004497,8708.92,1.8,-7.5,68.0,0.0,0.037028
112.375245,41.004531,8707.31,1.8,-7.5,68.0,0.0,0.036773
112.375355,41.004565,8705.71,1.8,-7.5,68.0,0.0,0.036482
112.375466,41.004598,8704.11,1.8,-7.5,68.0,0.0,0.036327
112.3756,41.004639,8702.18,1.8,-7.5,68.0,0.0,0.036005
112.375768,41.004691,8699.74,1.8,-7.5,68.0,0.0,0.035694
112.375937,41.004742,8697.3,1.8,-7.5,68.0,0.0,0.035747
112.376106,41.004794,8694.86,1.8,-7.5,68.0,0.0,0.035897
112.376277,41.004847,8692.37,1.8,-7.5,68.0,0.0,0.035655
112.376449,41.004899,8689.89,1.8,-7.5,68.0,0.0,0.035491
112.376621,41.004952,8687.4,1.8,-7.5,68.0,0.0,0.035414
112.376804,41.005008,8684.74,1.8,-7.5,68.0,0.0,0.034771
112.376991,41.005065,8682.04,1.8,-7.5,68.0,0.0,0.034006
112.377178,41.005122,8679.34,1.8,-7.5,68.0,0.0,0.033768
112.37733,41.005169,8677.13,1.8,-7.5,68.0,0.0,0.033812
112.377448,41.005204,8675.44,1.8,-7.5,68.0,0.0,0.034101
112.377565,41.00524,8673.74,1.8,-7.5,68.0,0.0,0.034486
112.377682,41.005276,8672.04,1.8,-7.5,68.0,0.0,0.034939
112.377799,41.005312,8670.35,1.8,-7.5,68.0,0.0,0.035343
112.377939,41.005355,8668.33,1.8,-7.5,68.0,0.0,0.035697
112.378113,41.005408,8665.82,1.8,-7.5,68.0,0.0,0.035946
112.378286,41.005461,8663.31,1.8,-7.5,68.0,0.0,0.036229
112.378461,41.005514,8660.79,1.8,-7.5,68.0,0.0,0.036468
112.378638,41.005568,8658.21,1.8,-7.5,68.0,0.0,0.036217
112.378816,41.005623,8655.64,1.8,-7.5,68.0,0.0,0.036082
112.378994,41.005677,8653.06,1.8,-7.5,68.0,0.0,0.035963
112.37912,41.005715,8651.25,1.8,-7.5,68.0,0.0,0.035788
112.379232,41.00575,8649.63,1.8,-7.5,68.0,0.0,0.035535
112.379343,41.005784,8648.02,1.8,-7.5,68.0,0.0,0.035772
112.379455,41.005818,8646.4,1.8,-7.5,68.0,0.0,0.035886
112.379567,41.005852,8644.78,1.8,-7.5,68.0,0.0,0.036188
112.379732,41.005902,8642.4,1.8,-7.5,68.0,0.0,0.036652
112.37992,41.00596,8639.68,1.8,-7.5,68.0,0.0,0.037313
112.380108,41.006017,8636.96,1.8,-7.5,68.0,0.0,0.03808
112.380297,41.006075,8634.23,1.8,-7.5,68.0,0.0,0.038219
112.380486,41.006133,8631.5,1.8,-7.5,68.0,0.0,0.037789
112.380675,41.006191,8628.77,1.8,-7.5,68.0,0.0,0.037345
112.380857,41.006246,8626.14,1.8,-7.5,68.0,0.0,0.036981
112.38097,41.006281,8624.5,1.8,-7.5,68.0,0.0,0.037555
112.381083,41.006315,8622.87,1.8,-7.5,68.0,0.0,0.038124
112.381196,41.006349,8621.24,1.8,-7.5,68.1,0.0,0.038579
112.381309,41.006384,8619.6,1.8,-7.5,68.1,0.0,0.039059
112.381422,41.006419,8617.97,1.8,-7.5,68.1,0.0,0.039438
112.381607,41.006475,8615.31,1.8,-7.5,68.1,0.0,0.039182
112.381792,41.006531,8612.64,1.8,-7.5,68.1,0.0,0.039069
112.381976,41.006588,8609.97,1.8,-7.5,68.1,0.0,0.039214
112.382147,41.00664,8607.5,1.8,-7.5,68.1,0.0,0.039549
112.382312,41.00669,8605.13,1.8,-7.5,68.1,0.0,0.039791
112.382476,41.00674,8602.75,1.8,-7.5,68.1,0.0,0.040165
112.382638,41.006789,8600.42,1.8,-7.5,68.1,0.0,0.040213
112.382793,41.006837,8598.18,1.8,-7.5,68.1,0.0,0.039799
112.382949,41.006884,8595.93,1.8,-7.5,68.1,0.0,0.039328
112.383103,41.006931,8593.72,1.8,-7.5,68.1,0.0,0.038913
112.383236,41.006972,8591.79,1.8,-7.5,68.1,0.0,0.038994
112.38337,41.007013,8589.86,1.8,-7.5,68.1,0.0,0.03887
112.383504,41.007053,8587.93,1.8,-7.5,68.1,0.0,0.038713
112.383637,41.007094,8586.0,1.8,-7.5,68.1,0.0,0.038997
112.383771,41.007135,8584.07,1.8,-7.5,68.1,0.0,0.039328
112.383935,41.007185,8581.71,1.8,-7.5,68.1,0.0,0.039395
112.384099,41.007235,8579.34,1.8,-7.5,68.1,0.0,0.039452
112.384264,41.007285,8576.97,1.8,-7.5,68.1,0.0,0.039601
112.384442,41.00734,8574.41,1.8,-7.5,68.1,0.0,0.039704
112.384626,41.007396,8571.75,1.8,-7.5,68.1,0.0,0.03974
112.38481,41.007452,8569.1,1.8,-7.5,68.1,0.0,0.039811
112.38498,41.007504,8566.64,1.8,-7.5,68.1,0.0,0.040221
112.38513,41.007549,8564.49,1.8,-7.5,68.1,0.0,0.040688
112.385279,41.007595,8562.33,1.8,-7.5,68.1,0.0,0.041499
112.385431,41.007641,8560.15,1.8,-7.5,68.1,0.0,0.042528
112.385602,41.007693,8557.68,1.8,-7.5,68.1,0.0,0.042727
112.385774,41.007745,8555.21,1.8,-7.5,68.1,0.0,0.042882
112.385945,41.007798,8552.74,1.8,-7.5,68.1,0.0,0.043134
112.386066,41.007834,8551.0,1.8,-7.5,68.1,0.0,0.043215
112.386173,41.007867,8549.46,1.8,-7.5,68.1,0.0,0.043088
112.38628,41.0079,8547.92,1.8,-7.5,68.1,0.0,0.04266
112.386387,41.007932,8546.38,1.8,-7.5,68.1,0.0,0.042185
112.386494,41.007965,8544.83,1.8,-7.5,68.1,0.0,0.041807
112.386655,41.008014,8542.52,1.8,-7.5,68.1,0.0,0.041768
112.386838,41.00807,8539.88,1.8,-7.5,68.1,0.0,0.042217
112.387022,41.008126,8537.23,1.8,-7.5,68.1,0.0,0.042612
112.387191,41.008177,8534.8,1.8,-7.5,68.1,0.0,0.042851
112.387338,41.008222,8532.7,1.8,-7.5,68.1,0.0,0.042878
112.387484,41.008266,8530.59,1.8,-7.5,68.1,0.0,0.042903
112.38763,41.008311,8528.49,1.8,-7.5,68.1,0.0,0.043029
112.387777,41.008355,8526.38,1.8,-7.5,68.1,0.0,0.042825
112.387923,41.0084,8524.29,1.8,-7.5,68.1,0.0,0.04302
112.388068,41.008444,8522.21,1.8,-7.5,68.1,0.0,0.043487
112.388212,41.008488,8520.12,1.8,-7.5,68.1,0.0,0.044088
112.388357,41.008532,8518.04,1.8,-7.5,68.1,0.0,0.044599
112.388535,41.008586,8515.49,1.8,-7.5,68.1,0.0,0.044964
112.388712,41.00864,8512.94,1.8,-7.5,68.1,0.0,0.045321
112.388889,41.008694,8510.39,1.8,-7.5,68.1,0.0,0.045661
112.389041,41.00874,8508.21,1.8,-7.5,68.1,0.0,0.045273
112.389182,41.008783,8506.18,1.8,-7.5,68.1,0.0,0.044599
112.389323,41.008826,8504.16,1.8,-7.5,68.1,0.0,0.043958
112.389464,41.008869,8502.14,1.8,-7.5,68.1,0.0,0.043285
112.389605,41.008912,8500.12,1.8,-7.5,68.1,0.0,0.042974
112.389774,41.008963,8497.69,1.8,-7.5,68.1,0.0,0.042731
112.389963,41.00902,8494.98,1.8,-7.5,68.1,0.0,0.042711
112.390152,41.009078,8492.27,1.8,-7.5,68.1,0.0,0.042756
112.39034,41.009135,8489.56,1.8,-7.5,68.1,0.0,0.042951
112.390529,41.009193,8486.85,1.8,-7.5,68.1,0.0,0.04282
112.390718,41.00925,8484.14,1.8,-7.5,68.1,0.0,0.043245
112.390907,41.009308,8481.43,1.8,-7.5,68.1,0.0,0.04392
112.391037,41.009347,8479.57,1.8,-7.5,68.1,0.0,0.044651
112.391166,41.009386,8477.71,1.8,-7.5,68.1,0.0,0.045434
112.391295,41.009426,8475.86,1.8,-7.5,68.1,0.0,0.04621
112.391458,41.009475,8473.51,1.8,-7.5,68.1,0.0,0.04584
112.391637,41.00953,8470.95,1.8,-7.5,68.1,0.0,0.045
112.391816,41.009584,8468.39,1.8,-7.5,68.1,0.0,0.044881
112.39198,41.009634,8466.04,1.8,-7.5,68.1,0.0,0.045139
112.392122,41.009677,8464.02,1.8,-7.5,68.1,0.0,0.045877
112.392263,41.00972,8461.99,1.8,-7.5,68.1,0.0,0.046096
112.392404,41.009763,8459.96,1.8,-7.5,68.1,0.0,0.046009
112.392546,41.009806,8457.94,1.8,-7.5,68.1,0.0,0.046092
112.392702,41.009853,8455.7,1.8,-7.5,68.1,0.017824,0.045924
112.392893,41.009911,8452.96,1.8,-7.5,68.1,0.07843,0.045525
112.393085,41.009969,8450.22,1.9,-7.5,68.1,0.139036,0.045763
112.393276,41.010028,8447.48,1.9,-7.5,68.1,0.199642,0.046302
112.3934,41.010065,8445.71,1.9,-7.5,68.1,0.2,0.046087
112.393523,41.010103,8443.95,1.9,-7.5,68.1,0.2,0.045994
112.393646,41.01014,8442.18,1.9,-7.4,68.2,0.2,0.045728
112.39377,41.010177,8440.42,1.9,-7.4,68.2,0.2,0.045772
112.393898,41.010216,8438.58,1.9,-7.4,68.2,0.2,0.046281
112.394049,41.010262,8436.43,1.9,-7.4,68.2,0.2,0.046938
112.394199,41.010308,8434.28,1.9,-7.4,68.2,0.2,0.047676
112.394349,41.010354,8432.12,1.9,-7.4,68.2,0.2,0.048328
112.394538,41.010411,8429.43,1.9,-7.4,68.2,0.2,0.048411
112.394752,41.010475,8426.37,1.9,-7.4,68.2,0.2,0.047961
112.394966,41.01054,8423.31,1.9,-7.4,68.2,0.2,0.047686
112.395152,41.010597,8420.65,1.9,-7.4,68.2,0.182177,0.04743
112.395271,41.010633,8418.94,1.9,-7.4,68.2,0.121571,0.046752
112.395391,41.010669,8417.24,1.9,-7.4,68.2,0.060965,0.046116
112.39551,41.010706,8415.53,1.9,-7.4,68.2,0.000359,0.045588
112.39563,41.010742,8413.82,1.9,-7.4,68.2,0.0,0.045307
112.395775,41.010786,8411.75,1.9,-7.4,68.2,0.0,0.045384
112.395946,41.010838,8409.3,1.9,-7.4,68.2,0.0,0.045697
112.396118,41.01089,8406.85,1.9,-7.4,68.2,0.0,0.046453
112.396293,41.010943,8404.35,1.9,-7.4,68.2,0.0,0.047106
112.396486,41.011002,8401.6,1.9,-7.4,68.2,0.0,0.04666
112.396678,41.01106,8398.86,1.9,-7.4,68.2,0.0,0.046213
112.396871,41.011118,8396.11,1.9,-7.4,68.2,0.0,0.045796
112.397023,41.011164,8393.95,1.9,-7.4,68.2,0.0,0.045786
112.397147,41.011202,8392.17,1.9,-7.4,68.2,0.0,0.046107
112.397271,41.01124,8390.4,1.9,-7.4,68.2,0.0,0.046397
112.397396,41.011278,8388.62,1.9,-7.4,68.2,0.0,0.046682
112.39752,41.011315,8386.84,1.9,-7.4,68.2,0.0,0.046942
112.397682,41.011364,8384.54,1.9,-7.4,68.2,0.0,0.046486
112.397854,41.011417,8382.09,1.9,-7.4,68.2,0.0,0.045949
112.398026,41.011469,8379.64,1.9,-7.4,68.2,0.0,0.046052
112.398207,41.011524,8377.05,1.9,-7.4,68.2,0.0,0.046436
112.398398,41.011582,8374.33,1.9,-7.4,68.2,0.0,0.047072
112.39859,41.01164,8371.61,1.9,-7.4,68.2,0.0,0.047669
112.398775,41.011696,8368.97,1.9,-7.4,68.2,0.0,0.047871
112.398935,41.011744,8366.68,1.9,-7.4,68.2,0.0,0.04736
112.399096,41.011793,8364.39,1.9,-7.4,68.2,0.0,0.046963
112.399257,41.011842,8362.11,1.9,-7.4,68.2,0.0,0.046422
112.399404,41.011886,8360.01,1.9,-7.4,68.2,0.0,0.046039
112.399542,41.011928,8358.04,1.9,-7.4,68.2,0.0,0.04579
112.399681,41.01197,8356.07,1.9,-7.4,68.2,0.0,0.045799
112.39982,41.012012,8354.1,1.9,-7.4,68.2,0.0,0.045851
112.399958,41.012054,8352.13,1.9,-7.4,68.2,0.0,0.046492
112.400108,41.0121,8349.98,1.9,-7.4,68.2,0.0,0.046886
112.400262,41.012146,8347.8,1.9,-7.4,68.2,0.0,0.047104
112.400415,41.012193,8345.62,1.9,-7.4,68.2,0.0,0.047343
112.40058,41.012242,8343.27,1.9,-7.4,68.2,0.0,0.04712
112.400756,41.012296,8340.77,1.9,-7.4,68.2,0.0,0.04667
112.400932,41.012349,8338.27,1.9,-7.4,68.2,0.0,0.046251
112.401101,41.0124,8335.87,1.9,-7.4,68.2,0.0,0.045924
112.401237,41.012441,8333.94,1.9,-7.4,68.2,0.0,0.045532
112.401373,41.012483,8332.0,1.9,-7.4,68.2,0.0,0.044982
112.40151,41.012524,8330.06,1.9,-7.4,68.2,0.0,0.0446
112.401646,41.012565,8328.13,1.9,-7.4,68.2,0.0,0.044158
112.401788,41.012608,8326.11,1.9,-7.4,68.2,0.0,0.043792
112.401986,41.012668,8323.3,1.9,-7.4,68.2,0.0,0.043886
112.402183,41.012728,8320.5,1.9,-7.4,68.2,0.0,0.04426
112.402381,41.012788,8317.7,1.9,-7.4,68.2,0.0,0.044588
112.402552,41.012839,8315.27,1.9,-7.4,68.2,0.0,0.044323
112.402715,41.012889,8312.94,1.9,-7.4,68.2,0.0,0.044004
112.402879,41.012938,8310.62,1.9,-7.4,68.2,0.0,0.043732
112.403056,41.012992,8308.11,1.9,-7.4,68.2,0.0,0.043364
112.403245,41.013049,8305.43,1.9,-7.4,68.2,0.0,0.042896
112.403435,41.013106,8302.74,1.9,-7.4,68.2,0.0,0.042411
112.403612,41.01316,8300.23,1.9,-7.4,68.2,0.0,0.042015
112.403741,41.013199,8298.4,1.9,-7.4,68.2,0.0,0.041967
112.40387,41.013238,8296.57,1.9,-7.4,68.2,0.0,0.041912
112.403999,41.013277,8294.74,1.9,-7.4,68.2,0.0,0.042124
112.404128,41.013316,8292.91,1.9,-7.4,68.2,0.0,0.042602
112.404262,41.013357,8291.0,1.9,-7.4,68.2,0.0,0.042861
112.404446,41.013412,8288.4,1.9,-7.4,68.2,0.0,0.042795
112.40463,41.013468,8285.79,1.9,-7.4,68.2,0.0,0.04289
112.404814,41.013523,8283.19,1.9,-7.4,68.2,0.0,0.042838
112.404986,41.013576,8280.75,1.9,-7.4,68.2,0.0,0.042749
112.405155,41.013627,8278.35,1.9,-7.4,68.2,0.0,0.042433
112.405325,41.013678,8275.95,1.9,-7.4,68.2,0.0,0.042444
112.405481,41.013725,8273.74,1.9,-7.4,68.2,0.0,0.042307
112.405624,41.013768,8271.72,1.9,-7.4,68.2,0.0,0.041821
112.405766,41.013811,8269.69,1.9,-7.4,68.2,0.0,0.041486
112.405909,41.013855,8267.67,1.9,-7.4,68.3,0.0,0.041337
112.406052,41.013898,8265.65,1.9,-7.4,68.3,0.0,0.041623
112.406203,41.013943,8263.51,1.9,-7.4,68.3,0.0,0.042255
112.406365,41.013992,8261.21,1.9,-7.4,68.3,0.0,0.042985
112.406528,41.014041,8258.91,1.9,-7.4,68.3,0.0,0.043657
112.406688,41.01409,8256.65,1.9,-7.4,68.3,0.0,0.044287
112.406825,41.014131,8254.71,1.9,-7.4,68.3,0.0,0.043509
112.406961,41.014172,8252.78,1.9,-7.4,68.3,0.0,0.042695
112.407098,41.014214,8250.85,1.9,-7.4,68.3,0.0,0.041802
112.407235,41.014255,8248.92,1.9,-7.4,68.3,0.0,0.041389
112.407371,41.014296,8246.98,1.9,-7.4,68.3,0.0,0.041178
112.40754,41.014347,8244.59,1.9,-7.4,68.3,0.0,0.041518
112.40771,41.014398,8242.2,1.9,-7.4,68.3,0.0,0.041687
112.407879,41.01445,8239.81,1.9,-7.4,68.3,0.0,0.041836
112.40807,41.014507,8237.11,1.9,-7.4,68.3,0.0,0.041971
112.408271,41.014568,8234.26,1.9,-7.4,68.3,0.0,0.042308
112.408472,41.014629,8231.42,1.9,-7.4,68.3,0.0,0.042867
112.408668,41.014688,8228.66,1.9,-7.4,68.3,0.0,0.043259
112.408855,41.014744,8226.02,1.9,-7.4,68.3,0.0,0.043155
112.409042,41.014801,8223.37,1.9,-7.4,68.3,0.0,0.043017
112.409223,41.014855,8220.82,1.9,-7.4,68.3,0.0,0.043081
112.409343,41.014891,8219.13,1.9,-7.4,68.3,0.0,0.042754
112.409463,41.014927,8217.44,1.9,-7.4,68.3,0.0,0.042275
112.409582,41.014964,8215.74,1.9,-7.4,68.3,0.0,0.041826
112.409702,41.015,8214.05,1.9,-7.4,68.3,0.0,0.041553
112.409822,41.015036,8212.36,1.9,-7.4,68.3,0.0,0.041359
112.410014,41.015094,8209.66,1.9,-7.4,68.3,0.0,0.041612
112.410206,41.015152,8206.95,1.9,-7.4,68.3,0.0,0.042101
112.410398,41.01521,8204.24,1.9,-7.4,68.3,0.0,0.042838
112.410565,41.01526,8201.88,1.9,-7.4,68.3,0.0,0.043285
112.410721,41.015307,8199.68,1.9,-7.4,68.3,0.0,0.043527
112.410877,41.015354,8197.47,1.9,-7.4,68.3,0.0,0.043754
112.411052,41.015407,8195.0,1.9,-7.4,68.3,0.0,0.043803
112.411257,41.015469,8192.11,1.9,-7.4,68.3,0.0,0.043625
112.411462,41.015531,8189.23,1.9,-7.4,68.3,0.0,0.043611
112.411658,41.01559,8186.46,1.9,-7.4,68.3,0.0,0.043485
112.41177,41.015623,8184.89,1.9,-7.4,68.3,0.0,0.043379
112.411881,41.015657,8183.32,1.9,-7.4,68.3,0.0,0.04322
112.411992,41.01569,8181.75,1.9,-7.4,68.3,0.0,0.043078
112.412104,41.015724,8180.18,1.9,-7.4,68.3,0.0,0.042919
112.412215,41.015758,8178.61,1.9,-7.4,68.3,0.0,0.042706
112.4124,41.015813,8176.01,1.9,-7.4,68.3,0.0,0.042856
112.412584,41.015869,8173.41,1.9,-7.4,68.3,0.0,0.042918
112.412769,41.015925,8170.81,1.9,-7.4,68.3,0.0,0.043057
112.412948,41.015978,8168.29,1.9,-7.4,68.3,0.0,0.042831
112.413123,41.016031,8165.82,1.9,-7.4,68.3,0.0,0.042443
112.413299,41.016084,8163.34,1.9,-7.4,68.3,0.0,0.041994
112.413462,41.016134,8161.04,1.9,-7.4,68.3,0.0,0.04148
112.413606,41.016177,8159.02,1.9,-7.4,68.3,0.0,0.040612
112.41375,41.01622,8157.0,1.9,-7.4,68.3,0.0,0.040199
112.413894,41.016263,8154.98,1.9,-7.4,68.3,0.0,0.040101
112.414037,41.016307,8152.96,1.9,-7.4,68.3,0.0,0.040271
112.414195,41.016354,8150.74,1.9,-7.4,68.3,0.0,0.040731
112.414387,41.016412,8148.04,1.9,-7.4,68.3,0.0,0.041484
112.414579,41.01647,8145.34,1.9,-7.4,68.3,0.0,0.042379
112.414771,41.016528,8142.64,1.9,-7.4,68.3,0.0,0.043338
112.414961,41.016585,8139.96,1.9,-7.4,68.3,0.0,0.043196
112.415152,41.016642,8137.28,1.9,-7.4,68.3,0.0,0.042996
112.415342,41.0167,8134.6,1.9,-7.4,68.3,0.0,0.042752
112.415501,41.016748,8132.37,1.9,-7.4,68.3,0.0,0.042321
112.415646,41.016791,8130.33,1.9,-7.4,68.3,0.0,0.041789
112.415791,41.016835,8128.29,1.9,-7.4,68.3,0.0,0.04137
112.415954,41.016884,8126.02,1.9,-7.4,68.3,0.0,0.041032
112.416142,41.01694,8123.36,1.9,-7.4,68.3,0.0,0.04113
112.416331,41.016997,8120.71,1.9,-7.4,68.3,0.0,0.0412
112.416514,41.017052,8118.14,1.9,-7.4,68.3,0.0,0.041215
112.416641,41.017091,8116.35,1.9,-7.4,68.3,0.0,0.041641
112.416769,41.017129,8114.56,1.9,-7.4,68.3,0.0,0.042089
112.416896,41.017167,8112.77,1.9,-7.4,68.3,0.0,0.043087
112.417023,41.017206,8110.98,1.9,-7.4,68.3,0.0,0.043908
112.417151,41.017244,8109.19,1.9,-7.4,68.3,0.0,0.04482
112.417349,41.017304,8106.41,1.9,-7.4,68.3,0.0,0.044135
112.417548,41.017364,8103.61,1.9,-7.4,68.3,0.0,0.043544
112.417747,41.017423,8100.82,1.9,-7.4,68.3,0.0,0.04304
112.417893,41.017467,8098.78,1.9,-7.4,68.3,0.0,0.042522
112.418014,41.017504,8097.08,1.9,-7.4,68.3,0.0,0.042241
112.418136,41.01754,8095.37,1.9,-7.4,68.3,0.0,0.042452
112.418258,41.017577,8093.66,1.9,-7.4,68.3,0.0,0.042943
112.41838,41.017614,8091.95,1.9,-7.4,68.3,0.0,0.043844
112.418554,41.017666,8089.5,1.9,-7.4,68.3,0.0,0.044137
112.418765,41.017729,8086.55,1.9,-7.4,68.3,0.0,0.044075
112.418976,41.017793,8083.6,1.9,-7.4,68.3,0.0,0.044124
112.419173,41.017852,8080.84,1.9,-7.4,68.3,0.0,0.04392
112.419336,41.017901,8078.55,1.9,-7.4,68.3,0.0,0.043068
112.4195,41.01795,8076.25,1.9,-7.4,68.4,0.0,0.042205
112.419663,41.017999,8073.96,1.9,-7.4,68.4,0.0,0.041369
112.41986,41.018058,8071.21,1.9,-7.4,68.4,0.0,0.04125
112.420056,41.018118,8068.46,1.9,-7.4,68.4,0.0,0.041526
112.420253,41.018177,8065.7,1.9,-7.4,68.4,0.0,0.04216
112.420404,41.018222,8063.58,1.9,-7.4,68.4,0.0,0.042488
112.420536,41.018262,8061.74,1.9,-7.4,68.4,0.0,0.042581
