经度(°),纬度(°),高度(m),滚转(°),俯仰(°),航向(°),滚转率(°/s),转弯率(°/s)
112.299756,40.947707,4314.96,74.6,-38.1,258.4,10.895682,16.037539
112.299686,40.947689,4309.77,74.4,-38.0,258.9,10.617556,15.988357
112.299615,40.947671,4304.58,74.1,-38.0,259.4,10.33954,15.985324
112.299545,40.947654,4299.39,73.9,-37.9,259.9,10.251185,16.032497
112.299475,40.947636,4294.2,73.6,-37.8,260.4,10.212007,16.073796
112.299357,40.947611,4285.71,73.2,-37.7,261.2,10.449315,16.046641
112.299238,40.947586,4277.19,72.8,-37.6,261.9,10.688153,16.097962
112.29912,40.947561,4268.68,72.4,-37.4,262.7,10.927046,16.23604
112.299009,40.947541,4260.82,72.1,-37.3,263.4,10.831642,16.257704
112.298902,40.947522,4253.25,71.7,-37.1,264.1,10.589252,16.240518
112.298794,40.947503,4245.68,71.4,-37.0,264.8,10.346862,16.242421
112.298695,40.947486,4238.76,71.1,-36.9,265.4,10.081906,16.179269
112.298608,40.947474,4232.81,70.8,-36.7,265.9,9.782415,15.980716
112.298522,40.947462,4226.87,70.5,-36.6,266.5,9.48298,15.86042
112.298435,40.94745,4220.92,70.3,-36.5,267.0,9.215455,15.792315
112.298349,40.947438,4214.97,70.0,-36.4,267.5,9.254688,15.850847
112.298252,40.947426,4208.38,69.7,-36.3,268.1,9.346376,15.882366
112.29813,40.947414,4200.23,69.3,-36.1,268.8,9.563849,15.886106
112.298009,40.947401,4192.08,69.0,-36.0,269.6,9.781323,16.008355
112.297887,40.947389,4183.94,68.6,-35.8,270.3,9.998796,16.169087
112.297772,40.94738,4176.37,68.3,-35.6,271.0,9.819189,16.210168
112.297657,40.947372,4168.81,68.0,-35.4,271.6,9.637397,16.263782
112.297542,40.947364,4161.25,67.7,-35.3,272.3,9.45555,16.330229
112.297444,40.947359,4154.95,67.4,-35.1,272.9,9.263868,16.251457
112.297355,40.947356,4149.2,67.2,-35.0,273.4,9.067759,16.093604
112.297265,40.947353,4143.45,67.0,-34.8,273.9,8.871651,15.921524
112.297176,40.947349,4137.7,66.7,-34.7,274.4,8.722042,15.782906
112.297087,40.947346,4131.95,66.5,-34.6,274.9,8.643577,15.708174
112.296981,40.947344,4125.26,66.2,-34.4,275.5,8.645653,15.666679
112.296864,40.947344,4117.92,65.9,-34.2,276.1,8.702699,15.660833
112.296747,40.947343,4110.59,65.6,-34.0,276.8,8.759745,15.81675
112.296627,40.947344,4103.04,65.3,-33.8,277.4,8.764335,15.920779
112.296496,40.947347,4094.99,65.0,-33.6,278.1,8.643085,15.912067
112.296365,40.947351,4086.94,64.7,-33.3,278.8,8.52189,15.933097
112.296234,40.947354,4078.89,64.4,-33.1,279.5,8.400641,15.983536
112.296104,40.947362,4071.04,64.1,-32.9,280.2,8.399985,15.833163
112.295973,40.947369,4063.19,63.8,-32.7,280.8,8.399985,15.760404
112.295843,40.947377,4055.34,63.5,-32.5,281.5,8.399985,15.761846
112.295744,40.947384,4049.45,63.3,-32.3,282.0,8.318296,15.741718
112.295659,40.947392,4044.42,63.1,-32.1,282.5,8.200653,15.706855
112.295573,40.9474,4039.38,62.9,-32.0,282.9,8.08301,15.70263
112.295488,40.947408,4034.35,62.7,-31.8,283.4,7.965367,15.728566
112.295403,40.947415,4029.32,62.6,-31.7,283.8,7.847723,15.816605
112.295292,40.947428,4022.9,62.3,-31.5,284.4,7.763958,15.886042
112.295164,40.947443,4015.53,62.1,-31.2,285.0,7.703415,15.955259
112.295037,40.947459,4008.15,61.8,-31.0,285.7,7.642763,16.03319
112.294905,40.947476,4000.6,61.5,-30.7,286.3,7.582166,16.049133
112.294764,40.947497,3992.64,61.2,-30.4,287.0,7.521568,15.913747
112.294623,40.947519,3984.67,61.0,-30.2,287.6,7.460971,15.801129
112.294482,40.94754,3976.7,60.7,-29.9,288.3,7.400373,15.712244
112.294366,40.947561,3970.32,60.5,-29.7,288.9,7.219182,15.577844
112.294251,40.947583,3963.94,60.3,-29.5,289.4,7.03739,15.543667
112.294136,40.947604,3957.56,60.1,-29.3,290.0,6.855543,15.599657
112.294043,40.947622,3952.48,59.9,-29.1,290.5,6.745549,15.658901
112.29396,40.94764,3947.97,59.8,-28.9,290.9,6.667084,15.716982
112.293877,40.947657,3943.46,59.6,-28.7,291.3,6.588674,15.798685
112.293794,40.947675,3938.96,59.5,-28.5,291.6,6.510208,15.866608
112.293711,40.947692,3934.45,59.4,-28.4,292.0,6.431798,15.921114
112.293594,40.947719,3928.21,59.2,-28.1,292.6,6.363988,15.873461
112.293455,40.947753,3920.78,58.9,-27.9,293.2,6.30339,15.780808
112.293315,40.947787,3913.36,58.7,-27.6,293.9,6.242738,15.711788
112.29319,40.947818,3906.73,58.5,-27.3,294.4,6.113019,15.635632
112.293099,40.947843,3902.0,58.3,-27.2,294.8,5.817573,15.485107
112.293008,40.947868,3897.27,58.2,-27.0,295.3,5.522126,15.430307
112.292917,40.947893,3892.55,58.1,-26.8,295.7,5.226625,15.38189
112.292826,40.947918,3887.82,58.0,-26.6,296.1,5.051717,15.396354
112.29272,40.947949,3882.37,57.8,-26.4,296.6,4.933692,15.375963
112.292598,40.947987,3876.18,57.6,-26.1,297.1,4.873094,15.330721
112.292477,40.948024,3869.99,57.4,-25.8,297.7,4.916425,15.404957
112.292356,40.948061,3863.87,57.3,-25.6,298.2,4.999644,15.527926
112.292239,40.948101,3858.03,57.1,-25.3,298.7,5.058493,15.60925
112.292121,40.94814,3852.19,56.9,-25.1,299.3,5.117342,15.696157
112.292004,40.94818,3846.35,56.8,-24.8,299.8,5.176136,15.788406
112.291878,40.948225,3840.16,56.6,-24.5,300.4,5.091933,15.762672
112.291746,40.948273,3833.73,56.5,-24.2,301.0,4.910141,15.666441
112.291614,40.948322,3827.31,56.3,-23.9,301.6,4.728294,15.586369
112.291498,40.948366,3821.66,56.2,-23.6,302.1,4.587756,15.500363
112.291419,40.948397,3817.88,56.1,-23.5,302.5,4.546065,15.353664
112.29134,40.948429,3814.11,56.0,-23.3,302.8,4.504428,15.282118
112.291261,40.948461,3810.33,55.9,-23.1,303.2,4.462736,15.206769
112.291181,40.948492,3806.56,55.8,-22.9,303.5,4.421099,15.24414
112.291077,40.948536,3801.63,55.6,-22.7,304.0,4.340066,15.25788
112.290946,40.948593,3795.53,55.5,-22.3,304.6,4.218871,15.266954
112.290815,40.948649,3789.43,55.4,-22.0,305.1,4.097676,15.375479
112.290687,40.948706,3783.49,55.3,-21.7,305.7,3.989213,15.493014
112.29057,40.94876,3778.18,55.1,-21.5,306.2,3.933643,15.444463
112.290454,40.948815,3772.87,55.0,-21.2,306.7,3.878072,15.419762
112.290337,40.948869,3767.56,54.9,-20.9,307.2,3.822556,15.419012
112.290241,40.948916,3763.25,54.8,-20.7,307.6,3.694203,15.325152
112.29016,40.948957,3759.62,54.7,-20.5,308.0,3.516181,15.161515
112.290078,40.948998,3755.99,54.6,-20.3,308.4,3.338159,15.131658
112.289996,40.949039,3752.37,54.6,-20.1,308.7,3.188004,15.127981
112.289915,40.94908,3748.74,54.5,-19.8,309.1,3.104676,15.238207
112.289808,40.949136,3744.1,54.4,-19.6,309.6,3.114566,15.322678
112.289695,40.949197,3739.2,54.3,-19.3,310.1,3.148663,15.406882
112.289582,40.949258,3734.31,54.2,-19.0,310.6,3.182759,15.495819
112.289466,40.949322,3729.33,54.1,-18.7,311.1,3.170027,15.494838
112.289347,40.94939,3724.29,54.0,-18.4,311.6,3.10943,15.409712
112.289228,40.949459,3719.24,53.9,-18.1,312.2,3.048833,15.340332
112.289109,40.949528,3714.23,53.8,-17.7,312.7,2.9784,15.270895
112.288991,40.9496,3709.41,53.7,-17.4,313.2,2.867313,15.150376
112.288874,40.949672,3704.59,53.6,-17.1,313.8,2.756173,15.10142
112.288757,40.949744,3699.77,53.5,-16.8,314.3,2.645086,15.147469
112.288662,40.949804,3695.94,53.5,-16.6,314.7,2.575255,15.135662
112.288583,40.949856,3692.77,53.4,-16.4,315.1,2.533563,15.070131
112.288504,40.949908,3689.61,53.4,-16.2,315.4,2.491926,15.047075
112.288424,40.94996,3686.45,53.4,-16.0,315.8,2.450235,15.054799
112.288345,40.950012,3683.28,53.3,-15.7,316.1,2.408598,15.180441
112.288247,40.950079,3679.48,53.3,-15.5,316.6,2.303686,15.275699
112.288145,40.95015,3675.51,53.2,-15.2,317.1,2.182491,15.370977
112.288043,40.950222,3671.54,53.1,-14.9,317.6,2.061242,15.473324
112.287934,40.9503,3667.39,53.1,-14.5,318.1,1.970045,15.468713
112.287819,40.950385,3663.07,53.0,-14.2,318.6,1.909448,15.360386
112.287704,40.95047,3658.74,52.9,-13.9,319.1,1.84885,15.26716
112.287599,40.950548,3654.82,52.9,-13.6,319.6,1.775248,15.185832
112.287537,40.950597,3652.54,52.9,-13.4,319.9,1.647769,15.085898
112.287474,40.950646,3650.26,52.9,-13.2,320.2,1.520291,15.035461
112.287411,40.950695,3647.98,52.8,-13.0,320.5,1.392867,15.058756
112.287348,40.950744,3645.7,52.8,-12.9,320.8,1.314948,15.139826
112.287282,40.950797,3643.29,52.8,-12.7,321.1,1.272874,15.255032
112.287181,40.950881,3639.72,52.8,-12.4,321.6,1.250089,15.317501
112.287079,40.950965,3636.14,52.7,-12.1,322.1,1.227358,15.392853
112.286977,40.951049,3632.57,52.7,-11.8,322.6,1.204627,15.480559
112.286873,40.95114,3629.01,52.7,-11.4,323.1,1.151843,15.480569
112.286768,40.951233,3625.45,52.6,-11.1,323.6,1.091246,15.46529
112.286663,40.951325,3621.9,52.6,-10.8,324.1,1.030648,15.460313
112.286577,40.951403,3619.03,52.6,-10.5,324.6,0.95945,15.422918
112.286511,40.951465,3616.88,52.6,-10.3,324.9,0.877488,15.33448
112.286444,40.951527,3614.72,52.6,-10.1,325.2,0.795471,15.232597
112.286378,40.95159,3612.56,52.5,-9.8,325.6,0.72941,15.132483
112.286311,40.951652,3610.41,52.5,-9.6,325.9,0.72941,15.084394
112.286235,40.951725,3608.01,52.5,-9.4,326.3,0.713946,15.037474
112.286146,40.951814,3605.23,52.5,-9.1,326.8,0.674768,15.004147
112.286056,40.951904,3602.46,52.5,-8.8,327.3,0.635535,15.064279
112.285967,40.951993,3599.71,52.5,-8.5,327.7,0.594281,15.186489
112.285879,40.952086,3597.12,52.5,-8.2,328.2,0.533684,15.229647
112.285792,40.952178,3594.54,52.5,-7.9,328.7,0.473086,15.284853
112.285704,40.952271,3591.96,52.5,-7.6,329.2,0.412489,15.351821
112.285617,40.952368,3589.49,52.5,-7.3,329.7,0.303752,15.28947
112.285529,40.952466,3587.05,52.6,-7.0,330.2,0.182503,15.206691
112.285442,40.952564,3584.6,52.6,-6.7,330.7,0.061308,15.141025
112.285369,40.952648,3582.61,52.6,-6.4,331.1,0.038768,15.040683
112.28531,40.952718,3581.08,52.6,-6.1,331.4,0.117192,14.882223
112.285252,40.952788,3579.56,52.6,-5.9,331.7,0.195623,14.843887
112.285193,40.952858,3578.03,52.7,-5.7,332.1,0.274055,14.87533
112.285135,40.952928,3576.5,52.7,-5.4,332.4,0.352479,15.050271
112.285067,40.953012,3574.78,52.7,-5.2,332.8,0.423895,15.191291
112.284984,40.953118,3572.77,52.7,-4.9,333.3,0.484499,15.306453
112.284901,40.953224,3570.77,52.8,-4.6,333.8,0.545104,15.437762
112.284819,40.953329,3568.79,52.8,-4.3,334.3,0.605708,15.55847
112.284745,40.95343,3567.15,52.8,-4.0,334.8,0.666319,15.444722
112.284671,40.953532,3565.5,52.9,-3.7,335.3,0.726923,15.343178
112.284597,40.953633,3563.86,52.9,-3.4,335.8,0.787528,15.254379
112.284529,40.95373,3562.46,52.9,-3.1,336.3,0.8,15.116373
112.284463,40.953827,3561.12,53.0,-2.8,336.7,0.8,14.967376
112.284397,40.953924,3559.78,53.0,-2.5,337.2,0.8,14.99388
112.284339,40.954011,3558.67,53.0,-2.2,337.6,0.819384,15.035816
112.28429,40.954088,3557.79,53.1,-2.0,337.9,0.858603,15.09287
112.284241,40.954165,3556.92,53.1,-1.8,338.3,0.897808,15.198201
112.284192,40.954242,3556.04,53.1,-1.5,338.6,0.93702,15.31768
112.284142,40.95432,3555.17,53.2,-1.3,339.0,0.976239,15.425764
112.284086,40.954411,3554.25,53.2,-1.1,339.4,1.047785,15.472991
112.28402,40.954523,3553.26,53.3,-0.7,339.9,1.169001,15.447061
112.283954,40.954635,3552.27,53.4,-0.4,340.4,1.290216,15.430855
112.283889,40.954747,3551.31,53.5,-0.1,340.9,1.405721,15.415775
112.283833,40.954849,3550.63,53.6,0.2,341.4,1.466319,15.326341
112.283777,40.954951,3549.96,53.6,0.5,341.9,1.526923,15.245417
112.283722,40.955054,3549.29,53.7,0.7,342.3,1.587534,15.173272
112.283682,40.955131,3548.9,53.7,1.0,342.6,1.645304,15.062222
112.283646,40.955202,3548.58,53.8,1.2,343.0,1.702343,14.92759
112.28361,40.955273,3548.26,53.9,1.3,343.3,1.759388,14.933565
112.283575,40.955344,3547.94,53.9,1.5,343.6,1.807616,14.991108
112.283539,40.955415,3547.62,54.0,1.7,343.9,1.846829,15.110783
112.283489,40.955522,3547.33,54.1,2.0,344.4,1.930601,15.135719
112.283433,40.955643,3547.06,54.2,2.4,344.9,2.033989,15.147701
112.283377,40.955765,3546.79,54.2,2.7,345.5,2.137378,15.188761
112.283324,40.955886,3546.62,54.3,3.0,346.0,2.223896,15.179004
112.283274,40.956005,3546.61,54.5,3.3,346.5,2.2845,15.063466
112.283225,40.956125,3546.61,54.6,3.6,347.0,2.345104,15.05296
112.283177,40.95624,3546.61,54.7,3.9,347.5,2.399664,15.110187
112.283151,40.95631,3546.75,54.8,4.1,347.8,2.396099,15.120818
112.283125,40.956379,3546.89,54.8,4.3,348.2,2.392533,15.106588
112.283099,40.956449,3547.03,54.9,4.4,348.5,2.388975,15.067385
112.283073,40.956519,3547.17,54.9,4.6,348.8,2.388237,15.071116
112.283047,40.956589,3547.31,55.0,4.8,349.1,2.388237,15.07113
112.283008,40.956706,3547.77,55.1,5.1,349.6,2.512294,15.030736
112.282969,40.956823,3548.23,55.2,5.4,350.1,2.637068,15.060021
112.282931,40.956939,3548.69,55.4,5.7,350.6,2.761848,15.165165
112.282894,40.957058,3549.32,55.5,6.0,351.2,2.88415,15.270895
112.282859,40.957178,3550.03,55.7,6.3,351.7,3.005365,15.380543
112.282825,40.957298,3550.74,55.8,6.6,352.3,3.126574,15.499367
112.282793,40.957411,3551.48,55.9,6.9,352.8,3.199998,15.538033
112.282767,40.957514,3552.28,56.1,7.1,353.2,3.199998,15.443784
112.282741,40.957616,3553.08,56.2,7.4,353.7,3.199998,15.351165
112.282716,40.957716,3553.87,56.3,7.6,354.1,3.203693,15.259554
112.2827,40.957792,3554.59,56.4,7.8,354.5,3.242906,15.156669
112.282684,40.957868,3555.31,56.5,8.0,354.8,3.282124,15.091947
112.282668,40.957943,3556.03,56.5,8.2,355.1,3.321343,15.124256
112.282651,40.958019,3556.75,56.6,8.4,355.5,3.360556,15.248531
112.282635,40.958095,3557.48,56.7,8.6,355.8,3.399774,15.388984
112.282615,40.95821,3558.79,56.9,8.9,356.3,3.460256,15.403197
112.282595,40.958325,3560.11,57.0,9.1,356.8,3.52086,15.43988
112.282575,40.958441,3561.43,57.2,9.4,357.3,3.581464,15.499588
112.282561,40.958538,3562.66,57.3,9.6,357.8,3.580201,15.431122
112.282549,40.958627,3563.86,57.4,9.9,358.2,3.551678,15.305048
112.282537,40.958717,3565.06,57.6,10.1,358.6,3.523169,15.230928
112.282526,40.958806,3566.26,57.7,10.3,359.0,3.518531,15.178079
112.282514,40.958895,3567.45,57.8,10.5,359.4,3.550626,15.168422
112.282505,40.958997,3569.0,58.0,10.8,359.9,3.617664,15.11718
112.282497,40.959108,3570.79,58.2,11.0,0.4,3.716627,15.052686
112.282489,40.959218,3572.58,58.3,11.3,0.9,3.893092,15.165637
112.282482,40.959329,3574.37,58.5,11.5,1.5,4.06957,15.288235
112.282474,40.959439,3576.16,58.7,11.8,2.0,4.246035,15.431381
112.282467,40.95955,3577.95,58.8,12.0,2.5,4.4225,15.588456
112.282459,40.95966,3579.74,59.0,12.3,3.0,4.598978,15.758897
112.282458,40.959766,3581.72,59.2,12.5,3.5,4.660259,15.68133
112.282456,40.959871,3583.7,59.4,12.7,4.0,4.72087,15.605584
112.282455,40.959977,3585.67,59.5,12.9,4.5,4.781474,15.533425
112.282458,40.960098,3588.11,59.8,13.2,5.1,4.94602,15.411586
112.282461,40.960227,3590.76,60.0,13.5,5.7,5.156356,15.305249
112.282465,40.960355,3593.4,60.3,13.8,6.3,5.366698,15.30615
112.28247,40.960463,3595.67,60.5,14.1,6.8,5.494122,15.306233
112.282475,40.960539,3597.37,60.6,14.2,7.2,5.494122,15.274384
112.282481,40.960615,3599.07,60.7,14.4,7.6,5.459165,15.304449
112.282487,40.96069,3600.78,60.9,14.5,8.0,5.40033,15.376094
112.282492,40.960766,3602.48,61.0,14.7,8.3,5.341522,15.540773
112.2825,40.960853,3604.5,61.2,14.9,8.8,5.326755,15.68132
112.282514,40.960968,3607.29,61.4,15.1,9.3,5.417651,15.802067
112.282527,40.961083,3610.08,61.6,15.4,9.9,5.508561,15.934009
112.282541,40.961198,3612.86,61.8,15.6,10.5,5.599485,16.076592
112.282554,40.961282,3615.07,62.0,15.8,10.9,5.611301,16.013048
112.282568,40.961366,3617.27,62.2,16.0,11.4,5.622666,15.939042
112.282582,40.96145,3619.47,62.4,16.2,11.8,5.634018,15.855544
112.282595,40.961534,3621.68,62.5,16.3,12.2,5.561236,15.860765
112.28261,40.96162,3623.95,62.7,16.5,12.7,5.454084,15.902747
112.282629,40.961712,3626.54,62.9,16.7,13.2,5.358119,15.925377
112.282648,40.961805,3629.13,63.1,16.9,13.7,5.345087,15.949703
112.282667,40.961897,3631.72,63.3,17.1,14.2,5.459452,15.975783
112.282693,40.962007,3634.94,63.6,17.3,14.8,5.666871,16.036197
112.282724,40.96213,3638.6,63.8,17.6,15.4,5.937811,16.125414
112.282755,40.962252,3642.25,64.1,17.8,16.1,6.208765,16.22228
112.282785,40.962368,3645.75,64.4,18.1,16.7,6.417823,16.25609
112.282814,40.962466,3648.87,64.6,18.2,17.2,6.478434,16.128492
112.282843,40.962564,3651.99,64.9,18.4,17.8,6.539032,16.009131
112.282873,40.962663,3655.11,65.1,18.6,18.3,6.599643,15.89849
112.282899,40.962738,3657.64,65.3,18.7,18.7,6.599998,15.780623
112.282924,40.962813,3660.17,65.5,18.9,19.2,6.599998,15.770629
112.28295,40.962889,3662.7,65.7,19.0,19.6,6.599998,15.854895
112.282976,40.962964,3665.23,65.8,19.2,20.0,6.599998,15.922563
112.283004,40.963043,3667.91,66.0,19.3,20.5,6.621568,15.934944
112.28304,40.963135,3671.18,66.3,19.5,21.0,6.732681,15.816111
112.283076,40.963228,3674.46,66.5,19.7,21.6,6.843809,15.773644
112.283112,40.96332,3677.74,66.8,19.8,22.1,6.954908,15.867764
112.283156,40.963423,3681.52,67.1,20.0,22.7,7.03601,15.915807
112.283204,40.963534,3685.64,67.4,20.2,23.4,7.096608,15.950713
112.283253,40.963644,3689.77,67.7,20.5,24.0,7.157232,16.014333
112.283303,40.963754,3693.96,68.0,20.7,24.7,7.235657,16.041967
112.283358,40.963864,3698.3,68.3,20.8,25.4,7.356865,15.934473
112.283412,40.963974,3702.64,68.6,21.0,26.0,7.478087,15.907364
112.283467,40.964084,3706.98,68.9,21.2,26.7,7.599296,15.912238
112.283508,40.964157,3710.08,69.1,21.3,27.2,7.682856,15.916679
112.283549,40.964231,3713.16,69.4,21.4,27.7,7.766185,15.99544
112.28359,40.964305,3716.25,69.6,21.6,28.1,7.849513,16.140546
112.283631,40.964379,3719.33,69.8,21.7,28.6,7.932855,16.269059
112.283674,40.964455,3722.53,70.1,21.8,29.1,8.010787,16.373269
112.283724,40.964537,3726.17,70.3,22.0,29.7,8.066344,16.434222
112.283775,40.96462,3729.8,70.6,22.1,30.2,8.121901,16.491356
112.283826,40.964703,3733.44,70.9,22.2,30.8,8.177458,16.544682
112.283888,40.964799,3737.81,71.2,22.4,31.4,8.272015,16.497628
112.283959,40.964905,3742.67,71.6,22.5,32.2,8.393223,16.396204
112.28403,40.96501,3747.53,71.9,22.7,32.9,8.514446,16.311057
112.284092,40.965101,3751.76,72.3,22.8,33.5,8.53204,16.241487
112.284133,40.965157,3754.49,72.4,22.9,33.9,8.300975,16.165409
112.284175,40.965214,3757.22,72.6,23.0,34.3,8.069909,16.177645
112.284216,40.96527,3759.94,72.8,23.1,34.7,7.838858,16.194081
112.284257,40.965326,3762.67,73.0,23.2,35.1,7.754655,16.313044
112.284319,40.965406,3766.63,73.3,23.3,35.7,7.875345,16.40839
112.284401,40.965508,3771.86,73.7,23.4,36.4,8.204888,16.508424
112.284483,40.965611,3777.09,74.1,23.5,37.2,8.534431,16.632517
112.284561,40.965708,3782.04,74.5,23.6,37.9,8.800002,16.737717
112.284623,40.965779,3785.84,74.7,23.7,38.5,8.800002,16.679545
112.284685,40.96585,3789.64,75.0,23.8,39.0,8.800002,16.624995
112.284747,40.965921,3793.44,75.3,24.0,39.6,8.800002,16.574215
112.28481,40.96599,3797.18,75.6,24.0,40.1,8.714474,16.461542
112.284872,40.966056,3800.89,75.9,24.1,40.6,8.570549,16.317962
112.284935,40.966122,3804.61,76.2,24.2,41.2,8.426609,16.344408
112.284997,40.966188,3808.32,76.4,24.2,41.7,8.386284,16.370191
112.28506,40.966254,3812.03,76.7,24.3,42.2,8.594618,16.431103
112.285129,40.966323,3816.01,77.0,24.4,42.8,8.772873,16.405836
112.285199,40.966392,3820.07,77.3,24.5,43.3,8.943327,16.347033
112.28527,40.966461,3824.13,77.6,24.6,43.9,9.113781,16.462142
112.285354,40.966539,3828.86,77.9,24.6,44.6,9.229949,16.546323
112.285451,40.966627,3834.29,78.3,24.7,45.4,9.29056,16.616303
112.285549,40.966715,3839.72,78.8,24.8,46.2,9.351157,16.70928
112.285644,40.966801,3845.01,79.2,24.9,46.9,9.432355,16.788312
112.285732,40.966874,3849.78,79.5,25.0,47.6,9.599025,16.735011
112.28582,40.966947,3854.54,79.9,25.0,48.3,9.765695,16.697913
112.285909,40.96702,3859.31,80.3,25.1,48.9,9.932365,16.67743
112.285985,40.967081,3863.39,80.6,25.1,49.5,9.975245,16.582164
112.286054,40.967134,3867.02,80.8,25.1,50.0,9.933595,16.437544
112.286124,40.967187,3870.64,81.1,25.2,50.6,9.891917,16.475305
112.286193,40.96724,3874.26,81.4,25.2,51.1,9.850239,16.54412
112.286262,40.967292,3877.88,81.6,25.2,51.6,9.808575,16.753764
112.286349,40.967355,3882.37,82.0,25.2,52.2,9.896247,16.865859
112.286442,40.96742,3887.08,82.3,25.3,52.9,10.01747,16.966919
112.286534,40.967486,3891.8,82.6,25.3,53.6,10.138692,17.080923
112.286633,40.967553,3896.79,83.0,25.3,54.3,10.170056,17.069175
112.286739,40.967622,3902.07,83.4,25.3,55.0,10.109445,16.927054
112.286846,40.967691,3907.35,83.8,25.4,55.7,10.048848,16.796419
112.286944,40.967755,3912.23,84.1,25.4,56.4,9.951148,16.685433
112.287011,40.967795,3915.45,84.4,25.4,56.8,9.699511,16.606107
112.287078,40.967835,3918.67,84.6,25.4,57.3,9.447873,16.603667
112.287144,40.967875,3921.89,84.9,25.4,57.7,9.196249,16.709407
112.287211,40.967915,3925.11,85.1,25.4,58.2,9.051886,16.834285
