经度(°),纬度(°),高度(m),滚转(°),俯仰(°),航向(°),滚转率(°/s),转弯率(°/s)
113.058982,40.799834,7017.76,-13.4,1.3,101.7,20.127038,0.399585
113.059093,40.799817,7017.78,-14.3,1.3,101.7,21.532253,0.416067
113.059204,40.799799,7017.79,-15.3,1.3,101.6,22.937469,0.439621
113.059315,40.799782,7017.81,-16.3,1.3,101.6,24.082154,0.462928
113.059426,40.799764,7017.83,-17.3,1.3,101.6,24.952047,0.485947
113.059563,40.799742,7017.85,-18.6,1.3,101.6,26.518401,0.515351
113.059701,40.799721,7017.87,-19.9,1.2,101.5,28.072241,0.544864
113.059839,40.799699,7017.89,-21.3,1.2,101.5,29.530569,0.575155
113.05999,40.799675,7017.91,-22.8,1.2,101.5,31.321827,0.603559
113.060147,40.79965,7017.93,-24.4,1.2,101.4,33.264988,0.63186
113.060305,40.799626,7017.95,-25.9,1.2,101.3,35.208204,0.661049
113.060439,40.799605,7017.96,-27.3,1.2,101.3,36.314531,0.686263
113.060536,40.79959,7017.97,-28.3,1.2,101.3,36.093506,0.703701
113.060632,40.799575,7017.97,-29.2,1.2,101.3,35.872481,0.721039
113.060729,40.79956,7017.98,-30.2,1.1,101.2,35.670581,0.738389
113.060825,40.799545,7017.99,-31.2,1.1,101.2,35.670581,0.756383
113.060935,40.799528,7017.99,-32.3,1.1,101.2,35.942477,0.777569
113.061076,40.799506,7017.99,-33.8,1.1,101.2,36.890781,0.806552
113.061218,40.799484,7018.0,-35.2,1.0,101.1,37.839084,0.835862
113.061359,40.799462,7018.0,-36.7,1.0,101.1,38.787388,0.865127
113.0615,40.79944,7017.99,-38.1,1.0,101.0,39.03923,0.894851
113.061641,40.799419,7017.98,-39.6,0.9,101.0,39.28162,0.924998
113.061781,40.799397,7017.97,-41.0,0.9,100.9,39.524064,0.956917
113.061934,40.799374,7017.95,-42.6,0.9,100.9,39.683235,0.983278
113.062093,40.79935,7017.92,-44.3,0.8,100.8,39.804485,1.008594
113.062251,40.799326,7017.89,-45.9,0.8,100.8,39.92568,1.035536
113.062385,40.799306,7017.86,-47.3,0.8,100.8,40.015182,1.057993
113.062479,40.799292,7017.83,-48.3,0.7,100.8,40.054415,1.071185
113.062574,40.799278,7017.8,-49.3,0.7,100.8,40.093593,1.08383
113.062668,40.799263,7017.77,-50.3,0.7,100.7,40.132826,1.096492
113.062762,40.799249,7017.74,-51.3,0.6,100.7,40.172003,1.112784
113.062871,40.799233,7017.7,-52.4,0.6,100.7,40.217356,1.130671
113.063016,40.799211,7017.63,-53.9,0.6,100.7,40.277953,1.153613
113.06316,40.79919,7017.57,-55.4,0.5,100.6,40.338605,1.177468
113.063305,40.799169,7017.5,-56.9,0.5,100.6,40.399203,1.202246
113.063467,40.799145,7017.4,-58.6,0.4,100.5,40.878354,1.212167
113.063628,40.799121,7017.29,-60.3,0.4,100.5,41.363243,1.224063
113.06379,40.799097,7017.18,-62.0,0.3,100.4,41.848077,1.238592
113.063933,40.799076,7017.07,-63.5,0.3,100.4,41.66705,1.245111
113.064067,40.799057,7016.96,-64.9,0.2,100.3,41.182216,1.247915
113.0642,40.799037,7016.84,-66.2,0.1,100.3,40.697382,1.265067
113.064319,40.79902,7016.73,-67.5,0.1,100.3,40.399968,1.282813
113.064414,40.799006,7016.63,-68.5,0.0,100.3,40.399968,1.298872
113.064509,40.798993,7016.53,-69.5,0.0,100.3,40.399968,1.316372
113.064604,40.798979,7016.43,-70.5,0.0,100.3,40.399968,1.334871
113.064698,40.798965,7016.33,-71.5,-0.1,100.3,40.399968,1.35261
113.064808,40.79895,7016.2,-72.6,-0.1,100.3,40.365216,1.368003
113.064954,40.798929,7016.01,-74.0,-0.2,100.3,40.244021,1.379581
113.0651,40.798908,7015.82,-75.5,-0.2,100.2,40.122826,1.391356
113.065247,40.798887,7015.62,-76.9,-0.3,100.2,40.001631,1.403315
113.065412,40.798863,7015.36,-77.8,-0.4,100.2,38.445277,1.402819
113.065578,40.79884,7015.1,-78.7,-0.4,100.2,36.86958,1.404713
113.065744,40.798816,7014.84,-79.6,-0.5,100.2,35.293828,1.409222
113.065886,40.798796,7014.59,-80.1,-0.5,100.2,33.301926,1.406673
113.066018,40.798777,7014.35,-80.4,-0.6,100.1,31.12009,1.400263
113.066149,40.798759,7014.11,-80.7,-0.7,100.1,28.938309,1.405053
113.06627,40.798741,7013.88,-81.0,-0.7,100.1,26.932911,1.411881
113.066374,40.798727,7013.66,-81.1,-0.8,100.1,25.207387,1.419488
113.066479,40.798712,7013.44,-81.2,-0.8,100.1,23.481917,1.43362
113.066583,40.798698,7013.22,-81.4,-0.8,100.1,21.756447,1.451471
113.066687,40.798683,7013.0,-81.5,-0.9,100.1,20.030923,1.467964
113.066803,40.798667,7012.74,-81.6,-0.9,100.1,18.035688,1.475948
113.066948,40.798646,7012.39,-81.7,-0.9,100.1,15.369018,1.466703
113.067093,40.798626,7012.04,-81.8,-1.0,100.1,12.702349,1.458665
113.067238,40.798606,7011.69,-81.9,-1.0,100.1,10.035679,1.452136
113.067337,40.798592,7011.43,-81.9,-1.0,100.1,8.28349,1.437845
113.067436,40.798578,7011.17,-82.0,-1.1,100.1,6.543758,1.426117
113.067535,40.798564,7010.9,-82.0,-1.1,100.0,4.804027,1.428386
113.067634,40.79855,7010.64,-82.1,-1.2,100.0,3.896486,1.435701
113.067733,40.798537,7010.38,-82.1,-1.2,100.0,3.368868,1.444383
113.067879,40.798516,7009.95,-82.2,-1.3,100.0,2.879171,1.44551
113.068031,40.798495,7009.51,-82.2,-1.3,100.0,2.522525,1.451296
113.068183,40.798474,7009.06,-82.3,-1.4,100.0,2.369256,1.465587
113.068327,40.798454,7008.62,-82.3,-1.4,100.0,2.180415,1.470661
113.068466,40.798435,7008.17,-82.3,-1.5,100.0,1.966493,1.470014
113.068605,40.798416,7007.73,-82.4,-1.6,100.0,1.752627,1.471619
113.068748,40.798396,7007.26,-82.4,-1.6,100.0,1.565261,1.470202
113.068902,40.798375,7006.72,-82.4,-1.7,100.0,1.444066,1.458438
113.069056,40.798353,7006.19,-82.5,-1.7,100.0,1.322816,1.455772
113.06921,40.798332,7005.66,-82.5,-1.8,100.0,1.201622,1.461736
113.069311,40.798318,7005.28,-82.6,-1.8,100.0,1.354727,1.456075
113.069412,40.798304,7004.9,-82.7,-1.9,100.0,1.511603,1.448438
113.069512,40.79829,7004.52,-82.9,-1.9,99.9,1.668479,1.441376
113.069613,40.798277,7004.14,-83.0,-2.0,99.9,1.825354,1.44169
113.069713,40.798263,7003.76,-83.1,-2.0,99.9,1.98223,1.444811
113.069849,40.798244,7003.22,-83.3,-2.1,99.9,2.376086,1.43916
113.069988,40.798225,7002.66,-83.6,-2.1,99.9,2.800323,1.437187
113.070128,40.798206,7002.09,-83.9,-2.2,99.9,3.22456,1.443476
113.070282,40.798185,7001.45,-84.3,-2.2,99.9,4.004349,1.447994
113.070445,40.798162,7000.74,-84.9,-2.3,99.9,5.034614,1.452737
113.070608,40.79814,7000.04,-85.4,-2.4,99.9,6.064935,1.459948
113.070749,40.798121,6999.42,-85.9,-2.4,99.9,6.95122,1.465718
113.070838,40.798109,6999.02,-86.2,-2.5,99.9,7.478839,1.460586
113.070927,40.798096,6998.61,-86.5,-2.5,99.9,8.006457,1.456923
113.071015,40.798084,6998.21,-86.8,-2.5,99.9,8.534075,1.454431
113.071104,40.798072,6997.8,-87.1,-2.6,99.9,8.889409,1.464131
113.071206,40.798058,6997.32,-87.4,-2.6,99.9,9.245672,1.472833
113.071367,40.798036,6996.54,-87.7,-2.7,99.9,9.616415,1.481348
113.071528,40.798015,6995.75,-88.0,-2.7,99.9,9.987212,1.491644
113.071688,40.797993,6994.97,-88.3,-2.8,99.9,10.357955,1.503225
113.07184,40.797972,6994.19,-88.5,-2.9,99.9,10.238836,1.495855
113.07199,40.797952,6993.41,-88.6,-2.9,99.9,10.057044,1.486725
113.07214,40.797931,6992.63,-88.8,-3.0,99.9,9.875197,1.478803
113.07226,40.797915,6992.0,-88.9,-3.0,99.9,9.22917,1.470571
113.072359,40.797901,6991.46,-89.0,-3.1,99.9,8.255896,1.461501
113.072457,40.797888,6990.93,-89.1,-3.1,99.9,7.282621,1.460103
113.072555,40.797875,6990.39,-89.1,-3.1,99.9,6.453436,1.458263
113.072654,40.797861,6989.85,-89.2,-3.2,99.9,5.982809,1.457126
113.072776,40.797845,6989.17,-89.2,-3.2,99.9,5.51393,1.454928
113.072923,40.797825,6988.33,-89.3,-3.3,99.9,5.046909,1.452791
113.07307,40.797805,6987.49,-89.4,-3.4,99.9,4.579888,1.467637
113.073214,40.797785,6986.65,-89.4,-3.4,99.9,4.098168,1.479333
113.073347,40.797767,6985.85,-89.4,-3.4,99.9,3.552737,1.476067
113.073481,40.797749,6985.05,-89.5,-3.5,99.9,3.007305,1.474273
113.073614,40.797731,6984.25,-89.5,-3.5,99.9,2.461873,1.474291
113.073733,40.797715,6983.52,-89.5,-3.6,99.9,2.131347,1.464997
113.07385,40.797699,6982.79,-89.6,-3.6,99.9,1.828305,1.461346
113.073967,40.797683,6982.06,-89.6,-3.7,99.9,1.525263,1.467949
113.074092,40.797666,6981.25,-89.6,-3.7,99.9,1.353962,1.466368
113.074224,40.797648,6980.39,-89.6,-3.8,99.9,1.275551,1.458755
113.074356,40.79763,6979.53,-89.7,-3.8,99.9,1.197141,1.449332
113.074487,40.797612,6978.67,-89.7,-3.8,99.9,1.118676,1.44515
113.074619,40.797595,6977.81,-89.7,-3.9,99.9,1.040265,1.456321
113.07475,40.797577,6976.94,-89.7,-3.9,99.9,0.970488,1.465772
113.074879,40.797559,6976.05,-89.7,-4.0,99.9,0.909945,1.473357
113.075009,40.797542,6975.16,-89.8,-4.1,99.9,0.849348,1.481684
113.075144,40.797523,6974.23,-89.8,-4.1,99.9,0.800061,1.486786
113.075304,40.797502,6973.09,-89.8,-4.2,99.9,0.800061,1.476287
113.075464,40.79748,6971.95,-89.9,-4.2,99.9,0.800006,1.467022
113.075624,40.797458,6970.81,-89.9,-4.3,99.9,0.800006,1.459465
113.075735,40.797443,6969.99,-89.9,-4.3,99.9,0.783231,1.448658
113.07584,40.797429,6969.21,-89.9,-4.4,99.9,0.764271,1.443682
113.075946,40.797415,6968.43,-90.0,-4.4,99.9,0.745365,1.447628
113.076051,40.7974,6967.65,-90.0,-4.5,99.9,0.738917,1.458098
113.076158,40.797386,6966.85,-90.0,-4.5,99.9,0.737824,1.472614
113.076288,40.797368,6965.85,-90.0,-4.6,99.9,0.698592,1.478462
113.076418,40.797351,6964.85,-90.0,-4.6,99.9,0.659359,1.484852
113.076549,40.797333,6963.85,-90.0,-4.7,99.9,0.620127,1.491769
113.076696,40.797313,6962.7,-90.0,-4.7,99.9,0.600018,1.489112
113.07686,40.797291,6961.38,-90.0,-4.8,99.9,0.600018,1.477387
113.077025,40.797268,6960.07,-90.1,-4.9,99.9,0.599964,1.468144
113.077177,40.797248,6958.85,-90.1,-4.9,99.9,0.596412,1.460759
113.077271,40.797235,6958.07,-90.1,-4.9,99.9,0.577506,1.450766
113.077366,40.797222,6957.29,-90.1,-5.0,99.9,0.558546,1.452165
113.077461,40.797209,6956.51,-90.2,-5.0,99.9,0.539585,1.456665
113.077556,40.797197,6955.73,-90.2,-5.1,99.9,0.537454,1.465845
113.077675,40.79718,6954.73,-90.2,-5.1,99.9,0.521335,1.470632
113.077833,40.797159,6953.38,-90.2,-5.2,99.9,0.479698,1.470581
113.077991,40.797138,6952.02,-90.2,-5.2,99.9,0.438061,1.474491
113.078146,40.797117,6950.7,-90.2,-5.3,99.9,0.404784,1.480192
113.078267,40.7971,6949.62,-90.2,-5.3,99.9,0.460355,1.474112
113.078389,40.797084,6948.55,-90.3,-5.4,99.9,0.515871,1.468053
113.078511,40.797067,6947.47,-90.3,-5.4,99.9,0.571441,1.462268
113.078642,40.797049,6946.31,-90.3,-5.4,99.9,0.599964,1.4549
113.078781,40.797031,6945.05,-90.3,-5.5,99.9,0.600018,1.446229
113.07892,40.797012,6943.79,-90.4,-5.6,99.9,0.600018,1.451827
113.079053,40.796994,6942.57,-90.4,-5.6,99.9,0.600018,1.455656
113.079162,40.796979,6941.55,-90.4,-5.6,99.9,0.600018,1.449493
113.079272,40.796964,6940.53,-90.4,-5.7,99.9,0.600018,1.448151
113.079381,40.796949,6939.51,-90.5,-5.7,99.9,0.600018,1.446983
113.07949,40.796934,6938.49,-90.5,-5.8,99.9,0.600018,1.459294
113.079622,40.796917,6937.24,-90.5,-5.8,99.9,0.600018,1.468324
113.079789,40.796894,6935.62,-90.5,-5.9,99.9,0.600018,1.472999
113.079956,40.796871,6934.01,-90.5,-5.9,99.9,0.600018,1.479778
113.08012,40.796849,6932.41,-90.5,-6.0,99.9,0.600018,1.48707
113.080258,40.79683,6931.04,-90.5,-6.1,99.9,0.600018,1.479674
113.080396,40.796812,6929.67,-90.6,-6.1,99.9,0.600018,1.473369
113.080534,40.796793,6928.3,-90.6,-6.2,99.9,0.600018,1.468183
113.08065,40.796777,6927.13,-90.6,-6.2,99.9,0.590784,1.45884
113.080744,40.796765,6926.17,-90.6,-6.3,99.9,0.571823,1.442814
113.080838,40.796752,6925.21,-90.7,-6.3,99.9,0.552917,1.442799
113.080932,40.796739,6924.25,-90.7,-6.3,99.9,0.537509,1.443125
113.081026,40.796726,6923.29,-90.7,-6.4,99.9,0.537509,1.457082
113.081163,40.796708,6921.86,-90.7,-6.4,99.9,0.508931,1.463322
113.081321,40.796686,6920.2,-90.7,-6.5,99.9,0.46724,1.468576
113.081478,40.796665,6918.55,-90.7,-6.6,99.9,0.425603,1.475972
113.081629,40.796645,6916.95,-90.7,-6.6,99.9,0.423472,1.477364
113.081771,40.796625,6915.43,-90.7,-6.6,99.9,0.484069,1.467053
113.081912,40.796606,6913.9,-90.8,-6.7,99.9,0.544667,1.457145
113.08205,40.796588,6912.41,-90.8,-6.7,99.9,0.598598,1.447687
113.082152,40.796574,6911.28,-90.8,-6.7,99.9,0.58226,1.439413
113.082255,40.79656,6910.14,-90.8,-6.8,99.9,0.565922,1.434134
113.082358,40.796546,6909.01,-90.9,-6.8,99.9,0.549584,1.436149
113.08246,40.796532,6907.87,-90.9,-6.9,99.9,0.540022,1.438002
113.082563,40.796518,6906.73,-90.9,-6.9,99.9,0.537509,1.439906
113.082708,40.796498,6905.09,-90.9,-7.0,99.9,0.556196,1.440817
113.082854,40.796479,6903.43,-91.0,-7.0,99.9,0.575102,1.443658
113.083,40.796459,6901.78,-91.0,-7.1,99.9,0.594008,1.455987
113.083155,40.796438,6899.99,-91.0,-7.1,99.9,0.599964,1.456323
113.083315,40.796416,6898.13,-91.0,-7.2,99.9,0.599964,1.453126
113.083474,40.796394,6896.28,-91.0,-7.3,99.9,0.599964,1.452795
113.083629,40.796374,6894.46,-91.0,-7.3,99.9,0.599964,1.44787
113.083776,40.796353,6892.7,-91.0,-7.4,99.9,0.599964,1.432093
113.083924,40.796333,6890.94,-91.1,-7.4,99.9,0.599964,1.422932
113.084067,40.796314,6889.23,-91.1,-7.5,99.9,0.599964,1.418287
113.084161,40.796301,6888.08,-91.1,-7.5,99.9,0.599964,1.414109
113.084255,40.796289,6886.94,-91.1,-7.6,99.9,0.599964,1.412298
113.084349,40.796276,6885.79,-91.2,-7.6,99.9,0.599964,1.418423
113.084443,40.796263,6884.64,-91.2,-7.7,99.9,0.599964,1.428479
113.084537,40.79625,6883.5,-91.2,-7.7,99.9,0.599964,1.443805
113.084697,40.796228,6881.5,-91.2,-7.8,99.9,0.540186,1.449845
113.084858,40.796207,6879.5,-91.2,-7.8,99.9,0.479589,1.458034
113.085019,40.796185,6877.49,-91.2,-7.9,99.9,0.418991,1.468241
113.085162,40.796165,6875.67,-91.2,-7.9,99.9,0.441558,1.465832
113.085298,40.796147,6873.94,-91.3,-8.0,99.9,0.50221,1.457049
113.085434,40.796128,6872.2,-91.3,-8.0,99.9,0.562808,1.448374
113.085557,40.796112,6870.63,-91.3,-8.0,99.9,0.591713,1.439295
113.085658,40.796098,6869.32,-91.3,-8.1,99.9,0.570348,1.428693
113.085758,40.796084,6868.0,-91.3,-8.1,99.9,0.548983,1.421826
113.085859,40.796071,6866.69,-91.4,-8.1,99.9,0.529422,1.418307
113.08596,40.796057,6865.38,-91.4,-8.2,99.9,0.529422,1.425852
113.08607,40.796042,6863.93,-91.4,-8.2,99.9,0.51822,1.434242
113.086205,40.796024,6862.14,-91.4,-8.3,99.9,0.478988,1.445663
113.086339,40.796005,6860.35,-91.4,-8.3,99.9,0.439755,1.456648
113.086474,40.795987,6858.56,-91.4,-8.4,99.9,0.400577,1.467531
113.086633,40.795965,6856.4,-91.4,-8.5,99.9,0.459808,1.465
113.086793,40.795944,6854.24,-91.5,-8.5,99.9,0.520406,1.463308
113.086952,40.795922,6852.07,-91.5,-8.6,99.9,0.581003,1.462426
113.087072,40.795906,6850.42,-91.5,-8.6,99.9,0.58532,1.455308
113.087174,40.795892,6849.01,-91.5,-8.7,99.9,0.563955,1.444125
113.087276,40.795878,6847.59,-91.6,-8.7,99.9,0.542536,1.431308
113.087378,40.795864,6846.18,-91.6,-8.7,99.9,0.529422,1.420931
113.08748,40.79585,6844.76,-91.6,-8.8,99.9,0.529422,1.415686
113.087597,40.795834,6843.12,-91.6,-8.8,99.9,0.541989,1.41127
113.087724,40.795817,6841.31,-91.6,-8.8,99.9,0.563354,1.408316
113.087852,40.7958,6839.51,-91.7,-8.9,99.9,0.584773,1.41908
113.087992,40.79578,6837.51,-91.7,-8.9,99.9,0.600018,1.428435
113.088164,40.795757,6835.04,-91.7,-9.0,99.9,0.600018,1.435618
113.088335,40.795734,6832.57,-91.7,-9.0,99.9,0.600018,1.445447
113.088507,40.79571,6830.1,-91.7,-9.1,99.9,0.600018,1.457971
113.088651,40.795691,6827.98,-91.7,-9.2,99.9,0.600018,1.445878
113.088795,40.795671,6825.86,-91.8,-9.2,99.9,0.600018,1.433872
113.088938,40.795651,6823.74,-91.8,-9.3,99.9,0.600018,1.422443
113.089057,40.795635,6821.98,-91.8,-9.3,99.9,0.600018,1.411746
113.089164,40.795621,6820.38,-91.8,-9.4,99.9,0.600018,1.400577
113.089271,40.795606,6818.78,-91.9,-9.4,99.9,0.600018,1.405479
113.089377,40.795592,6817.17,-91.9,-9.4,99.9,0.599964,1.415041
113.089484,40.795577,6815.57,-91.9,-9.5,99.9,0.599964,1.430342
113.0896,40.795561,6813.81,-91.9,-9.5,99.9,0.564392,1.433979
113.089722,40.795545,6811.95,-91.9,-9.6,99.9,0.503849,1.430731
113.089845,40.795528,6810.08,-91.9,-9.7,99.9,0.443197,1.428711
113.08998,40.795509,6807.99,-91.9,-9.7,99.9,0.417352,1.423699
113.09015,40.795486,6805.35,-91.9,-9.8,99.9,0.477949,1.410643
113.09032,40.795463,6802.72,-92.0,-9.8,100.0,0.538547,1.409475
113.09049,40.79544,6800.08,-92.0,-9.9,100.0,0.599144,1.419074
113.090629,40.795421,6797.87,-92.0,-9.9,100.0,0.599964,1.415882
113.090768,40.795402,6795.67,-92.1,-10.0,100.0,0.599964,1.412059
113.090907,40.795383,6793.47,-92.1,-10.0,100.0,0.599964,1.409893
113.091021,40.795367,6791.65,-92.1,-10.0,100.0,0.599964,1.411193
113.091123,40.795353,6790.01,-92.1,-10.1,100.0,0.599964,1.413751
113.091224,40.795339,6788.37,-92.2,-10.1,100.0,0.600018,1.416733
113.091326,40.795326,6786.73,-92.2,-10.1,100.0,0.600018,1.41978
113.091428,40.795312,6785.09,-92.2,-10.2,100.0,0.600018,1.422678
113.091558,40.795294,6782.97,-92.2,-10.2,100.0,0.600018,1.419447
113.091708,40.795273,6780.52,-92.2,-10.3,100.0,0.600018,1.413825
113.091857,40.795253,6778.07,-92.2,-10.4,100.0,0.600018,1.415975
113.092006,40.795232,6775.61,-92.2,-10.4,100.0,0.600018,1.414434
113.092154,40.795212,6773.15,-92.2,-10.5,100.0,0.600018,1.401341
113.092302,40.795192,6770.69,-92.3,-10.5,100.0,0.600018,1.39556
113.09245,40.795172,6768.22,-92.3,-10.6,100.0,0.600018,1.395996
113.092549,40.795158,6766.54,-92.3,-10.6,100.0,0.578927,1.397204
113.092647,40.795145,6764.88,-92.3,-10.7,100.0,0.557507,1.396475
113.092746,40.795131,6763.21,-92.4,-10.7,100.0,0.536143,1.396964
113.092844,40.795118,6761.54,-92.4,-10.8,100.0,0.529422,1.403828
113.092943,40.795104,6759.87,-92.4,-10.8,100.0,0.529422,1.413193
113.093102,40.795082,6757.13,-92.4,-10.9,100.0,0.49467,1.408132
113.093269,40.79506,6754.24,-92.4,-10.9,100.0,0.455437,1.404729
113.093436,40.795037,6751.36,-92.4,-11.0,100.0,0.416204,1.404397
113.093559,40.79502,6749.22,-92.4,-11.0,100.0,0.42298,1.400987
113.093652,40.795007,6747.6,-92.4,-11.0,100.0,0.462213,1.39436
113.093744,40.794994,6745.99,-92.5,-11.1,100.0,0.501445,1.398376
113.093836,40.794982,6744.37,-92.5,-11.1,100.0,0.523302,1.400089
113.093929,40.794969,6742.75,-92.5,-11.1,100.0,0.501882,1.397774
113.094053,40.794952,6740.55,-92.5,-11.1,100.0,0.490954,1.390273
113.094211,40.79493,6737.74,-92.5,-11.2,100.0,0.490954,1.379309
113.094369,40.794909,6734.92,-92.6,-11.3,100.0,0.512046,1.382127
113.094523,40.794887,6732.16,-92.6,-11.3,100.0,0.53341,1.383462
113.094662,40.794868,6729.65,-92.6,-11.4,100.0,0.554775,1.37488
113.094802,40.794849,6727.13,-92.7,-11.4,100.0,0.576195,1.375762
113.094941,40.79483,6724.62,-92.7,-11.5,100.0,0.597614,1.382034
113.095056,40.794814,6722.5,-92.7,-11.5,100.0,0.600018,1.378578
113.095169,40.794799,6720.43,-92.7,-11.6,100.0,0.600018,1.379281
113.095282,40.794783,6718.36,-92.7,-11.6,100.0,0.600018,1.388316
113.095394,40.794768,6716.29,-92.7,-11.7,100.0,0.577014,1.394217
113.095507,40.794752,6714.21,-92.7,-11.7,100.0,0.54259,1.396222
113.095627,40.794736,6711.99,-92.7,-11.8,100.0,0.558928,1.388198
113.095746,40.794719,6709.76,-92.8,-11.8,100.0,0.575266,1.381438
113.095865,40.794703,6707.54,-92.8,-11.9,100.0,0.591604,1.379366
113.096007,40.794683,6704.87,-92.8,-11.9,100.0,0.599964,1.375756
113.096173,40.79466,6701.73,-92.8,-12.0,100.0,0.599964,1.371501
113.096339,40.794638,6698.59,-92.9,-12.1,100.0,0.599964,1.383371
113.096502,40.794615,6695.5,-92.9,-12.1,100.0,0.588653,1.394347
113.096649,40.794595,6692.67,-92.9,-12.1,100.0,0.528056,1.393798
113.096797,40.794575,6689.84,-92.9,-12.2,100.1,0.467458,1.395326
113.096944,40.794554,6687.01,-92.9,-12.2,100.1,0.406861,1.398835
113.097048,40.79454,6685.0,-92.9,-12.2,100.1,0.436914,1.38756
113.097146,40.794526,6683.09,-92.9,-12.3,100.1,0.478605,1.378306
113.097244,40.794513,6681.18,-93.0,-12.3,100.1,0.520242,1.375829
113.097342,40.794499,6679.27,-93.0,-12.4,100.1,0.561879,1.382033
113.097443,40.794485,6677.29,-93.0,-12.4,100.1,0.599964,1.393664
113.097585,40.794466,6674.5,-93.0,-12.5,100.1,0.599964,1.394149
113.097726,40.794446,6671.71,-93.1,-12.5,100.1,0.600018,1.396369
113.097868,40.794427,6668.91,-93.1,-12.6,100.1,0.600018,1.400058
113.09801,40.794407,6666.08,-93.1,-12.6,100.1,0.570512,1.403194
113.098154,40.794387,6663.19,-93.1,-12.7,100.1,0.509969,1.403571
113.098298,40.794367,6660.31,-93.1,-12.8,100.1,0.449317,1.4031
113.098436,40.794348,6657.55,-93.1,-12.8,100.1,0.40779,1.400912
113.098545,40.794333,6655.33,-93.1,-12.8,100.1,0.449481,1.395054
113.098654,40.794318,6653.12,-93.1,-12.8,100.1,0.491118,1.388367
113.098763,40.794303,6650.91,-93.2,-12.9,100.1,0.532809,1.380911
113.098872,40.794288,6648.7,-93.2,-12.9,100.1,0.537509,1.38254
113.098998,40.79427,6646.1,-93.2,-12.9,100.1,0.544831,1.384947
113.099154,40.794249,6642.9,-93.2,-13.0,100.1,0.563791,1.387786
113.099309,40.794227,6639.7,-93.3,-13.0,100.1,0.582752,1.392075
113.099462,40.794206,6636.55,-93.3,-13.1,100.1,0.59521,1.397675
