经度(°),纬度(°),高度(m),滚转(°),俯仰(°),航向(°),滚转率(°/s),转弯率(°/s)
113.009216,41.185178,8539.38,90.1,-6.5,272.7,17.999352,3.627061
113.009112,41.185185,8538.2,90.3,-6.5,272.7,16.668995,3.574189
113.009035,41.185189,8537.31,90.5,-6.5,272.7,15.499639,3.529336
113.008959,41.185194,8536.42,90.6,-6.6,272.6,14.330311,3.50123
113.008883,41.185199,8535.53,90.7,-6.6,272.6,13.160969,3.488876
113.0088,41.185204,8534.53,90.8,-6.7,272.6,11.946069,3.468685
113.008716,41.185209,8533.52,90.9,-6.7,272.6,10.744748,3.454715
113.008633,41.185213,8532.51,91.0,-6.8,272.6,9.607481,3.474155
113.008549,41.185218,8531.51,91.1,-6.8,272.6,8.470241,3.489964
113.008466,41.185223,8530.5,91.2,-6.9,272.6,7.332987,3.502578
113.008379,41.185228,8529.41,91.3,-7.0,272.6,6.39721,3.49667
113.008291,41.185232,8528.31,91.3,-7.0,272.6,5.488125,3.489522
113.008203,41.185237,8527.22,91.4,-7.1,272.6,4.579027,3.482785
113.008124,41.185241,8526.2,91.4,-7.1,272.6,3.892361,3.487415
113.00805,41.185245,8525.25,91.5,-7.2,272.5,3.364729,3.498514
113.007976,41.185249,8524.29,91.5,-7.3,272.5,2.83711,3.507824
113.007901,41.185253,8523.34,91.5,-7.3,272.5,2.412409,3.525334
113.007827,41.185257,8522.38,91.6,-7.4,272.4,2.248416,3.566398
113.007748,41.18526,8521.35,91.6,-7.4,272.4,2.105078,3.638643
113.007664,41.185265,8520.23,91.7,-7.5,272.4,1.983869,3.741712
113.00758,41.185269,8519.11,91.8,-7.6,272.3,1.908205,3.841236
113.007487,41.185273,8517.87,91.8,-7.6,272.3,1.844452,3.935508
113.00736,41.185279,8516.13,91.9,-7.7,272.0,1.83019,4.026205
113.007233,41.185284,8514.39,92.0,-7.8,271.8,1.815929,4.128774
113.007105,41.18529,8512.64,92.1,-7.9,271.5,1.801667,4.243505
113.00702,41.185293,8511.45,92.2,-8.0,271.3,1.853508,4.337383
113.00694,41.185296,8510.32,92.3,-8.0,271.0,1.91412,4.427177
113.00686,41.185299,8509.2,92.4,-8.1,270.8,1.974731,4.516173
113.006783,41.185302,8508.09,92.4,-8.1,270.5,2.045724,4.592955
113.006707,41.185305,8507.0,92.5,-8.2,270.2,2.124162,4.658986
113.006631,41.185307,8505.91,92.6,-8.3,269.9,2.202586,4.7482
113.006556,41.18531,8504.82,92.7,-8.3,269.6,2.281024,4.850444
113.00648,41.185312,8503.72,92.8,-8.4,269.3,2.359448,4.976361
113.006394,41.185314,8502.46,92.9,-8.4,268.9,2.45854,5.115289
113.006296,41.185317,8501.02,93.0,-8.5,268.5,2.579762,5.269223
113.006198,41.185319,8499.57,93.1,-8.6,268.1,2.700985,5.430824
113.006097,41.185321,8498.07,93.2,-8.6,267.7,2.811101,5.581264
113.005982,41.185323,8496.31,93.3,-8.7,267.2,2.871712,5.68823
113.005866,41.185325,8494.55,93.5,-8.8,266.7,2.932309,5.805332
113.00575,41.185326,8492.79,93.6,-8.9,266.3,2.992907,5.932449
113.005669,41.185327,8491.55,93.7,-8.9,265.9,2.999997,6.006206
113.005594,41.185327,8490.38,93.8,-9.0,265.6,2.999997,6.08596
113.005518,41.185328,8489.2,93.9,-9.0,265.2,2.999997,6.187182
113.005442,41.185327,8488.01,93.9,-9.0,264.9,2.999997,6.267211
113.005366,41.185327,8486.82,94.0,-9.1,264.6,2.999997,6.332068
113.005291,41.185327,8485.63,94.1,-9.1,264.3,2.999997,6.400657
113.005215,41.185326,8484.43,94.2,-9.1,264.0,2.999997,6.468791
113.00514,41.185326,8483.24,94.3,-9.2,263.7,2.999997,6.534697
113.005043,41.185324,8481.69,94.4,-9.2,263.3,3.058545,6.569835
113.004924,41.185322,8479.77,94.6,-9.3,262.8,3.179754,6.581347
113.004805,41.185319,8477.84,94.8,-9.4,262.3,3.300962,6.603012
113.004693,41.185317,8476.01,94.9,-9.4,261.9,3.411092,6.619224
113.004607,41.185314,8474.6,95.1,-9.5,261.6,3.47169,6.565402
113.004521,41.185311,8473.19,95.2,-9.5,261.3,3.532301,6.50479
113.004435,41.185308,8471.77,95.4,-9.6,261.0,3.592912,6.437193
113.004354,41.185305,8470.42,95.7,-9.6,260.9,3.958873,6.369557
113.004274,41.185301,8469.07,96.0,-9.7,260.7,4.365297,6.305915
113.004194,41.185297,8467.73,96.2,-9.7,260.6,4.771707,6.248254
113.004114,41.185294,8466.38,96.5,-9.8,260.5,5.192665,6.201467
113.004034,41.18529,8465.03,96.8,-9.8,260.3,5.624046,6.162928
113.00395,41.185285,8463.6,97.4,-9.8,260.3,6.686291,6.081158
113.003864,41.18528,8462.14,98.1,-9.9,260.2,7.923375,5.998011
113.003779,41.185275,8460.68,98.8,-10.0,260.1,9.160458,5.937812
113.003682,41.185269,8459.01,100.0,-10.0,260.1,11.205158,5.842203
113.003572,41.185262,8457.1,101.6,-10.0,260.0,14.114244,5.711665
113.003462,41.185254,8455.2,103.3,-10.1,259.9,17.023331,5.584377
113.003357,41.185247,8453.37,104.9,-10.1,259.9,19.97747,5.454135
113.003273,41.18524,8451.9,106.6,-10.1,259.9,23.132772,5.294561
113.003189,41.185234,8450.42,108.4,-10.1,259.9,26.288073,5.13163
113.003106,41.185227,8448.95,110.1,-10.0,259.8,29.443375,4.96422
113.003022,41.185221,8447.48,111.8,-10.0,259.8,32.346833,4.8653
113.002932,41.185213,8445.89,113.7,-10.0,259.8,35.445677,4.758475
113.002832,41.185205,8444.13,115.7,-9.9,259.8,38.912995,4.626148
113.002732,41.185196,8442.37,117.7,-9.9,259.9,42.380299,4.512818
113.002632,41.185187,8440.6,119.8,-9.8,259.9,45.847617,4.414188
113.002539,41.185179,8438.94,121.1,-9.7,259.9,47.216906,4.296564
113.002447,41.18517,8437.31,122.1,-9.6,260.0,48.004796,4.181507
113.002355,41.185161,8435.68,123.2,-9.5,260.0,48.792672,4.08319
113.002265,41.185153,8434.08,124.0,-9.5,260.0,48.087619,3.965493
113.002177,41.185144,8432.52,124.5,-9.4,260.0,45.784588,3.821643
113.002088,41.185135,8430.96,125.0,-9.3,260.0,43.481558,3.671395
113.002,41.185126,8429.4,125.4,-9.3,260.0,41.043358,3.525846
113.001914,41.185117,8427.88,125.6,-9.3,260.0,38.001697,3.420922
113.001828,41.185108,8426.35,125.9,-9.3,260.0,34.960036,3.319162
113.001742,41.185099,8424.83,126.1,-9.2,260.1,31.918376,3.219064
113.001656,41.18509,8423.3,126.3,-9.2,260.1,28.876715,3.151865
113.001572,41.185081,8421.8,126.4,-9.2,260.1,25.521849,3.080176
113.00149,41.185072,8420.35,126.5,-9.2,260.1,21.662382,2.993614
113.001408,41.185063,8418.9,126.6,-9.2,260.1,17.802888,2.915596
113.001326,41.185054,8417.44,126.7,-9.1,260.1,13.943421,2.843041
113.001244,41.185045,8415.99,126.8,-9.1,260.1,11.551079,2.786517
113.001155,41.185035,8414.42,126.9,-9.1,260.1,9.552703,2.723303
113.00105,41.185023,8412.55,127.0,-9.2,260.1,7.522415,2.635709
113.000945,41.185011,8410.68,127.1,-9.2,260.0,6.077557,2.553405
113.00084,41.184998,8408.81,127.1,-9.2,260.0,5.259382,2.474677
113.000734,41.184986,8406.94,127.2,-9.3,260.0,4.44118,2.401673
113.000629,41.184974,8405.06,127.3,-9.3,259.9,3.724202,2.337462
113.000524,41.184962,8403.19,127.4,-9.4,259.9,3.459054,2.311681
113.000431,41.18495,8401.54,127.4,-9.4,259.9,3.173197,2.274586
113.000344,41.18494,8399.98,127.5,-9.5,259.8,2.87775,2.231594
113.000258,41.184929,8398.43,127.6,-9.5,259.8,2.582303,2.18885
113.000172,41.184919,8396.9,127.6,-9.5,259.8,2.369939,2.145223
113.00009,41.184908,8395.42,127.7,-9.6,259.7,2.291528,2.099017
113.000007,41.184898,8393.94,127.7,-9.6,259.7,2.213091,2.054278
112.999925,41.184887,8392.46,127.8,-9.6,259.7,2.134653,2.010511
112.999842,41.184877,8390.98,127.9,-9.7,259.6,2.056215,1.982377
112.999752,41.184865,8389.35,127.9,-9.7,259.6,1.99141,1.958948
112.999639,41.184851,8387.32,128.0,-9.8,259.5,1.961111,1.937367
112.999527,41.184836,8385.28,128.0,-9.9,259.5,1.930813,1.923369
112.999414,41.184822,8383.25,128.1,-10.0,259.4,1.900486,1.917622
112.999328,41.18481,8381.68,128.1,-10.0,259.3,1.810656,1.885723
112.999241,41.184799,8380.12,128.2,-10.1,259.3,1.719732,1.856581
112.999155,41.184787,8378.56,128.2,-10.1,259.2,1.628836,1.838703
112.999071,41.184776,8377.02,128.2,-10.1,259.2,1.570807,1.813724
112.998988,41.184765,8375.5,128.3,-10.2,259.1,1.527995,1.785772
112.998905,41.184754,8373.98,128.3,-10.3,259.1,1.485238,1.770813
112.998822,41.184742,8372.46,128.3,-10.3,259.1,1.443793,1.762306
112.998739,41.184731,8370.94,128.4,-10.4,259.0,1.404587,1.761508
112.998645,41.184718,8369.21,128.4,-10.4,259.0,1.354973,1.757426
112.998544,41.184704,8367.33,128.4,-10.5,259.0,1.297955,1.751702
112.998442,41.18469,8365.46,128.5,-10.6,258.9,1.240909,1.746755
112.998342,41.184676,8363.61,128.5,-10.6,258.9,1.20001,1.741335
112.998248,41.184663,8361.85,128.6,-10.6,258.8,1.20001,1.734054
112.998153,41.18465,8360.09,128.6,-10.7,258.8,1.20001,1.726889
112.998058,41.184636,8358.33,128.7,-10.7,258.7,1.20001,1.719662
112.997966,41.184623,8356.59,128.7,-10.8,258.7,1.199982,1.699322
112.997873,41.18461,8354.86,128.8,-10.8,258.6,1.20001,1.678687
112.997781,41.184597,8353.12,128.8,-10.9,258.6,1.199982,1.657669
112.997688,41.184583,8351.38,128.8,-10.9,258.6,1.20001,1.639996
112.997596,41.18457,8349.63,128.9,-11.0,258.5,1.199982,1.624421
112.997504,41.184556,8347.88,128.9,-11.0,258.5,1.199982,1.6215
112.997411,41.184543,8346.13,128.9,-11.0,258.5,1.20001,1.623551
112.997319,41.184529,8344.38,129.0,-11.1,258.4,1.20001,1.630677
112.997231,41.184517,8342.69,129.0,-11.1,258.4,1.20001,1.631627
112.997145,41.184504,8341.04,129.0,-11.1,258.4,1.199982,1.628161
112.997058,41.184491,8339.4,129.1,-11.2,258.3,1.199982,1.624627
112.996959,41.184476,8337.5,129.1,-11.2,258.3,1.182852,1.615617
112.996827,41.184456,8334.93,129.1,-11.3,258.2,1.122227,1.594729
112.996694,41.184436,8332.37,129.2,-11.3,258.2,1.06163,1.577305
112.996562,41.184416,8329.81,129.2,-11.4,258.1,1.001033,1.563589
112.996493,41.184406,8328.48,129.2,-11.4,258.1,0.978985,1.553144
112.996426,41.184395,8327.16,129.2,-11.5,258.1,0.957565,1.544649
112.996359,41.184385,8325.84,129.3,-11.5,258.0,0.936173,1.547247
112.996291,41.184375,8324.53,129.3,-11.6,258.0,0.902623,1.552475
112.996224,41.184365,8323.21,129.3,-11.6,258.0,0.863418,1.558107
112.996128,41.18435,8321.32,129.3,-11.6,258.0,0.843091,1.556311
112.996028,41.184334,8319.35,129.4,-11.7,257.9,0.825251,1.554507
112.995928,41.184319,8317.38,129.4,-11.7,257.9,0.807438,1.553399
112.995818,41.184301,8315.2,129.4,-11.7,257.9,0.835332,1.547143
112.995701,41.184283,8312.86,129.5,-11.8,257.8,0.895957,1.538282
112.995584,41.184264,8310.53,129.6,-11.9,257.7,0.956582,1.531249
112.995474,41.184247,8308.33,129.6,-11.9,257.7,0.996333,1.522504
112.995384,41.184233,8306.51,129.6,-11.9,257.7,0.983356,1.505682
112.995294,41.184218,8304.69,129.7,-12.0,257.6,0.970351,1.491065
112.995204,41.184204,8302.87,129.7,-12.0,257.6,0.957374,1.479453
112.995114,41.184189,8301.04,129.7,-12.1,257.6,0.965406,1.474825
112.995024,41.184175,8299.22,129.7,-12.1,257.6,0.973821,1.472875
112.994934,41.18416,8297.4,129.7,-12.1,257.6,0.982236,1.483193
112.994844,41.184146,8295.58,129.8,-12.2,257.5,0.990623,1.496963
112.994754,41.184131,8293.75,129.8,-12.2,257.5,0.999038,1.511062
112.994649,41.184114,8291.61,129.8,-12.2,257.4,0.999994,1.506565
112.994543,41.184097,8289.42,129.9,-12.3,257.4,1.000022,1.500388
112.994437,41.184079,8287.23,129.9,-12.3,257.3,0.999994,1.495308
112.994337,41.184063,8285.17,129.9,-12.3,257.3,0.964669,1.497805
112.994242,41.184047,8283.19,129.9,-12.3,257.3,0.904044,1.504084
112.994147,41.184031,8281.22,130.0,-12.4,257.2,0.843419,1.509723
112.994057,41.184016,8279.35,130.0,-12.4,257.2,0.797602,1.50865
112.993982,41.184004,8277.78,130.0,-12.5,257.2,0.789215,1.492196
112.993907,41.183991,8276.21,130.0,-12.5,257.2,0.7808,1.473458
112.993832,41.183979,8274.64,130.1,-12.5,257.1,0.772412,1.4523
112.993757,41.183966,8273.07,130.1,-12.6,257.1,0.763998,1.455131
112.993676,41.183952,8271.36,130.1,-12.6,257.1,0.770609,1.459085
112.993568,41.183934,8269.08,130.2,-12.6,257.1,0.844184,1.467799
112.993461,41.183916,8266.81,130.2,-12.7,257.0,0.917786,1.476862
112.993353,41.183898,8264.53,130.3,-12.7,257.0,0.991388,1.486525
112.993252,41.18388,8262.37,130.3,-12.7,256.9,0.999994,1.483704
112.993151,41.183863,8260.23,130.4,-12.8,256.9,0.999994,1.479037
112.993051,41.183846,8258.08,130.4,-12.8,256.8,0.999994,1.474547
112.992958,41.18383,8256.07,130.4,-12.8,256.8,0.987536,1.465221
112.992869,41.183814,8254.15,130.4,-12.9,256.8,0.966144,1.451415
112.992779,41.183799,8252.23,130.5,-12.9,256.7,0.944779,1.437179
112.99269,41.183783,8250.3,130.5,-12.9,256.7,0.929425,1.42691
112.992601,41.183768,8248.38,130.5,-13.0,256.7,0.929425,1.42917
112.992514,41.183752,8246.48,130.5,-13.0,256.7,0.939752,1.433271
112.992427,41.183737,8244.59,130.5,-13.0,256.7,0.961117,1.437866
112.99234,41.183722,8242.69,130.6,-13.1,256.6,0.982536,1.441079
112.992246,41.183705,8240.65,130.6,-13.1,256.6,0.988929,1.442297
112.992121,41.183683,8237.89,130.6,-13.2,256.5,0.928305,1.436946
112.991995,41.183661,8235.13,130.7,-13.2,256.5,0.867707,1.433903
112.99187,41.183639,8232.37,130.7,-13.3,256.4,0.80711,1.433341
112.991775,41.183622,8230.27,130.7,-13.3,256.4,0.800006,1.429157
112.991684,41.183605,8228.24,130.8,-13.4,256.3,0.800006,1.423645
112.991593,41.183589,8226.22,130.8,-13.4,256.3,0.800006,1.417298
112.991483,41.183569,8223.76,130.8,-13.4,256.3,0.812465,1.4107
112.991359,41.183547,8220.98,130.8,-13.4,256.3,0.833857,1.4061
112.991235,41.183524,8218.2,130.9,-13.5,256.2,0.855222,1.403433
112.991124,41.183504,8215.71,130.9,-13.5,256.2,0.881668,1.402699
112.991047,41.18349,8213.96,131.0,-13.6,256.2,0.920873,1.399906
112.990969,41.183476,8212.21,131.0,-13.6,256.2,0.949779,1.400353
112.990892,41.183462,8210.46,131.0,-13.6,256.1,0.967592,1.404226
112.990814,41.183448,8208.71,131.1,-13.7,256.1,0.985405,1.407754
112.990729,41.183432,8206.77,131.1,-13.7,256.1,0.999994,1.408243
112.990606,41.183409,8203.95,131.1,-13.7,256.0,0.999994,1.396719
112.990482,41.183386,8201.13,131.2,-13.8,256.0,0.999994,1.394178
112.990359,41.183363,8198.32,131.2,-13.8,255.9,0.999994,1.396505
112.990261,41.183345,8196.04,131.2,-13.8,255.9,0.999994,1.393545
112.990165,41.183327,8193.84,131.3,-13.9,255.8,0.999994,1.388927
112.99007,41.183309,8191.64,131.3,-13.9,255.8,0.999994,1.383224
112.989984,41.183293,8189.65,131.3,-13.9,255.8,0.987536,1.377425
112.989905,41.183279,8187.83,131.3,-14.0,255.8,0.966144,1.371149
112.989827,41.183264,8186.0,131.4,-14.0,255.7,0.944779,1.379051
112.989748,41.183249,8184.17,131.4,-14.0,255.7,0.918333,1.389152
112.98967,41.183234,8182.34,131.4,-14.1,255.7,0.879127,1.39668
112.989574,41.183216,8180.1,131.4,-14.1,255.7,0.850222,1.398041
112.989459,41.183194,8177.4,131.4,-14.1,255.7,0.832409,1.395299
112.989344,41.183172,8174.7,131.5,-14.2,255.6,0.814568,1.39427
112.989231,41.183151,8172.05,131.5,-14.2,255.6,0.800006,1.392917
112.989126,41.18313,8169.57,131.5,-14.2,255.5,0.800006,1.382587
112.989022,41.18311,8167.09,131.6,-14.3,255.5,0.800006,1.372097
112.988917,41.18309,8164.61,131.6,-14.3,255.4,0.800006,1.361301
112.98882,41.183071,8162.29,131.6,-14.3,255.4,0.800006,1.35373
112.988723,41.183053,8159.99,131.7,-14.4,255.3,0.800006,1.352272
112.988627,41.183034,8157.69,131.7,-14.4,255.3,0.800006,1.358713
112.988534,41.183016,8155.46,131.7,-14.4,255.3,0.822847,1.357411
112.988444,41.182998,8153.29,131.8,-14.5,255.3,0.862079,1.349208
112.988354,41.18298,8151.12,131.8,-14.5,255.2,0.901284,1.341165
112.988264,41.182963,8148.95,131.8,-14.5,255.2,0.940517,1.337181
112.988173,41.182945,8146.78,131.9,-14.6,255.2,0.979695,1.345701
112.988083,41.182927,8144.59,131.9,-14.6,255.2,0.990842,1.349565
112.987991,41.182909,8142.36,131.9,-14.6,255.1,0.971909,1.348588
112.9879,41.182891,8140.14,132.0,-14.7,255.1,0.952975,1.348014
112.987808,41.182873,8137.91,132.0,-14.7,255.1,0.934015,1.347075
112.987717,41.182855,8135.69,132.0,-14.7,255.0,0.915081,1.342043
112.987613,41.182834,8133.14,132.0,-14.7,255.0,0.909071,1.332386
112.987503,41.182812,8130.44,132.1,-14.8,254.9,0.909071,1.320638
112.987393,41.18279,8127.74,132.1,-14.9,254.9,0.909098,1.320852
112.987294,41.18277,8125.31,132.1,-14.9,254.9,0.907131,1.319557
112.987213,41.182754,8123.3,132.1,-14.9,254.9,0.902104,1.312484
112.987132,41.182738,8121.29,132.2,-15.0,254.8,0.886668,1.309987
112.98705,41.182721,8119.28,132.2,-15.0,254.8,0.863773,1.311237
112.986925,41.182696,8116.16,132.2,-15.0,254.8,0.844867,1.303054
112.986787,41.182668,8112.73,132.3,-15.1,254.7,0.827027,1.298642
112.98665,41.18264,8109.3,132.3,-15.1,254.7,0.809241,1.305304
112.986536,41.182617,8106.45,132.3,-15.1,254.7,0.809159,1.3065
112.986446,41.182598,8104.21,132.3,-15.1,254.7,0.828092,1.29888
112.986357,41.18258,8101.97,132.4,-15.2,254.6,0.847025,1.299133
112.986268,41.182562,8099.73,132.4,-15.2,254.6,0.870139,1.297503
112.986181,41.182543,8097.51,132.4,-15.2,254.6,0.911803,1.293527
112.986093,41.182525,8095.29,132.5,-15.2,254.6,0.940517,1.29127
112.986005,41.182507,8093.06,132.5,-15.3,254.5,0.963248,1.288896
112.985917,41.182489,8090.84,132.6,-15.3,254.5,0.985979,1.29262
112.985817,41.182468,8088.28,132.6,-15.3,254.5,1.063816,1.291513
112.985695,41.182443,8085.19,132.8,-15.4,254.4,1.230472,1.283438
112.985574,41.182418,8082.09,132.9,-15.4,254.4,1.397156,1.280878
112.985453,41.182392,8078.99,133.0,-15.5,254.3,1.56384,1.282512
112.985347,41.18237,8076.26,133.1,-15.5,254.3,1.789783,1.282316
112.985244,41.182349,8073.63,133.3,-15.6,254.3,2.0322,1.281283
112.985142,41.182327,8070.99,133.4,-15.6,254.3,2.274617,1.280602
112.985044,41.182306,8068.45,133.6,-15.6,254.3,2.531678,1.280117
112.98495,41.182286,8066.01,133.7,-15.7,254.3,2.804394,1.279409
112.984856,41.182266,8063.56,133.9,-15.7,254.2,3.077137,1.27855
112.984762,41.182247,8061.12,134.1,-15.7,254.2,3.3457,1.277696
112.984668,41.182227,8058.67,134.2,-15.8,254.2,3.595685,1.27677
112.984569,41.182206,8056.07,134.4,-15.8,254.2,3.866379,1.269323
112.984467,41.182184,8053.4,134.6,-15.9,254.1,4.14669,1.25913
112.984365,41.182162,8050.72,134.8,-16.0,254.1,4.427001,1.249515
112.984271,41.182142,8048.26,135.0,-16.0,254.1,4.635021,1.241486
112.984191,41.182125,8046.14,135.1,-16.0,254.1,4.726518,1.234951
112.984111,41.182108,8044.01,135.3,-16.0,254.1,4.818015,1.234964
112.984031,41.18209,8041.89,135.4,-16.1,254.0,4.90954,1.239021
112.983951,41.182073,8039.77,135.6,-16.1,254.0,4.93779,1.237254
112.983863,41.182054,8037.45,135.8,-16.1,254.0,4.962597,1.231032
112.983756,41.182031,8034.6,135.9,-16.2,254.0,5.023194,1.220304
112.98365,41.182008,8031.75,136.1,-16.2,254.0,5.069175,1.217012
112.983543,41.181985,8028.91,136.3,-16.3,254.0,5.099474,1.222704
112.98342,41.181959,8025.59,136.5,-16.3,254.0,5.248918,1.22414
112.983296,41.181932,8022.26,136.8,-16.4,253.9,5.400412,1.227791
112.983172,41.181905,8018.94,137.0,-16.4,253.9,5.55196,1.236506
112.983055,41.181879,8015.75,137.3,-16.4,253.9,5.682772,1.238325
112.98294,41.181854,8012.63,137.5,-16.5,253.8,5.803994,1.237543
112.982825,41.181829,8009.51,137.8,-16.6,253.8,5.925189,1.238384
112.982721,41.181806,8006.67,138.0,-16.6,253.8,6.050018,1.236761
112.982633,41.181787,8004.25,138.2,-16.6,253.8,6.180747,1.228151
112.982544,41.181768,8001.84,138.4,-16.7,253.8,6.311477,1.225457
112.982456,41.181748,7999.42,138.7,-16.7,253.8,6.442207,1.226365
112.982353,41.181726,7996.57,138.9,-16.7,253.8,6.652003,1.22641
112.982245,41.181702,7993.6,139.2,-16.8,253.8,6.869586,1.226917
112.982137,41.181678,7990.63,139.5,-16.9,253.8,7.051405,1.229339
112.982032,41.181655,7987.71,139.7,-16.9,253.8,7.25153,1.229906
112.98193,41.181632,7984.86,140.0,-17.0,253.8,7.471243,1.228722
112.981828,41.18161,7982.01,140.3,-17.0,253.7,7.571811,1.228013
112.981725,41.181587,7979.16,140.6,-17.0,253.7,7.670275,1.227959
112.981623,41.181565,7976.3,140.9,-17.1,253.7,7.768739,1.228379
112.981539,41.181546,7973.94,141.1,-17.1,253.7,7.763494,1.224473
112.981463,41.181529,7971.8,141.4,-17.2,253.7,7.709999,1.217689
112.981387,41.181512,7969.66,141.6,-17.2,253.7,7.656533,1.214875
112.981311,41.181495,7967.51,141.8,-17.2,253.7,7.61853,1.214947
112.981234,41.181478,7965.37,142.0,-17.3,253.7,7.60547,1.219516
112.981141,41.181458,7962.72,142.3,-17.3,253.7,7.658855,1.22351
112.981035,41.181434,7959.7,142.5,-17.4,253.7,7.759887,1.227171
112.980929,41.18141,7956.68,142.8,-17.5,253.7,7.781826,1.231452
112.98082,41.181386,7953.6,143.1,-17.5,253.7,7.764696,1.23296
112.980707,41.181361,7950.35,143.3,-17.5,253.7,7.704071,1.226776
112.980594,41.181336,7947.1,143.6,-17.6,253.7,7.625169,1.221296
112.980481,41.181311,7943.86,143.8,-17.6,253.7,7.526705,1.216623
112.980362,41.181284,7940.42,144.0,-17.7,253.7,7.428186,1.203907
112.980243,41.181257,7936.98,144.3,-17.7,253.6,7.329722,1.192684
112.980124,41.181231,7933.54,144.5,-17.8,253.6,7.231231,1.187246
112.980024,41.181208,7930.63,144.7,-17.8,253.6,7.092878,1.179061
112.979933,41.181188,7927.97,144.8,-17.9,253.6,6.93603,1.168742
112.979842,41.181168,7925.31,145.0,-17.9,253.6,6.779181,1.16731
