经度(°),纬度(°),高度(m),滚转(°),俯仰(°),航向(°),滚转率(°/s),转弯率(°/s)
112.008048,40.96163,2709.95,-0.3,2.3,262.6,0.0,0.452661
112.007874,40.961612,2710.32,-0.3,2.4,262.6,0.0,0.453885
112.007699,40.961595,2710.68,-0.3,2.4,262.6,0.0,0.45531
112.007558,40.961581,2710.99,-0.3,2.4,262.6,0.0,0.4541
112.007426,40.961568,2711.28,-0.3,2.4,262.6,0.0,0.451753
112.007294,40.961556,2711.57,-0.3,2.4,262.6,0.0,0.449139
112.007162,40.961543,2711.86,-0.3,2.4,262.6,0.0,0.447613
112.00703,40.96153,2712.15,-0.3,2.4,262.6,0.0,0.447175
112.006856,40.961512,2712.54,-0.3,2.4,262.6,0.0,0.44697
112.006664,40.961494,2712.98,-0.3,2.5,262.6,0.0,0.447175
112.006471,40.961475,2713.42,-0.3,2.5,262.6,0.0,0.450967
112.006282,40.961456,2713.86,-0.3,2.5,262.6,0.0,0.453823
112.0061,40.961438,2714.29,-0.3,2.5,262.6,0.0,0.454473
112.005916,40.96142,2714.73,-0.3,2.5,262.6,0.0,0.455794
112.005734,40.961402,2715.16,-0.3,2.5,262.6,0.0,0.457269
112.00556,40.961385,2715.58,-0.3,2.5,262.6,0.0,0.454837
112.005386,40.961368,2716.01,-0.3,2.6,262.6,0.0,0.453923
112.005212,40.961351,2716.43,-0.3,2.6,262.6,0.0,0.456369
112.00508,40.961338,2716.76,-0.3,2.6,262.6,0.0,0.456696
112.004959,40.961326,2717.07,-0.3,2.6,262.6,0.0,0.455863
112.004838,40.961314,2717.38,-0.3,2.7,262.6,0.0,0.456344
112.004717,40.961302,2717.69,-0.3,2.7,262.6,0.0,0.458465
112.004595,40.96129,2718.0,-0.3,2.7,262.6,0.0,0.46264
112.004416,40.961273,2718.46,-0.3,2.7,262.6,0.0,0.465964
112.004211,40.961253,2719.0,-0.3,2.7,262.6,0.0,0.469618
112.004007,40.961233,2719.53,-0.3,2.7,262.6,0.0,0.473952
112.003805,40.961213,2720.07,-0.3,2.7,262.6,0.0,0.47644
112.003607,40.961193,2720.61,-0.3,2.7,262.6,0.0,0.475441
112.00341,40.961174,2721.14,-0.3,2.8,262.6,0.0,0.474946
112.003215,40.961155,2721.67,-0.3,2.8,262.6,0.0,0.474794
112.003045,40.961138,2722.15,-0.3,2.8,262.6,0.0,0.473091
112.002875,40.961121,2722.63,-0.3,2.9,262.6,0.0,0.47273
112.002705,40.961105,2723.1,-0.3,2.9,262.6,0.0,0.475069
112.002566,40.961091,2723.5,-0.3,2.9,262.6,0.0,0.477047
112.002436,40.961078,2723.88,-0.3,2.9,262.6,0.0,0.47873
112.002306,40.961065,2724.26,-0.3,2.9,262.6,0.0,0.483688
112.002175,40.961053,2724.64,-0.3,2.9,262.6,0.0,0.488215
112.002045,40.96104,2725.01,-0.3,2.9,262.6,0.0,0.492349
112.00188,40.961024,2725.5,-0.3,2.9,262.6,0.0,0.491968
112.0017,40.961006,2726.04,-0.3,3.0,262.6,0.0,0.489928
112.00152,40.960988,2726.57,-0.3,3.0,262.6,0.0,0.488206
112.001359,40.960972,2727.06,-0.3,3.0,262.6,0.0,0.485993
112.001226,40.960959,2727.47,-0.3,3.0,262.6,0.0,0.482429
112.001093,40.960946,2727.88,-0.3,3.0,262.6,0.0,0.481583
112.00096,40.960933,2728.29,-0.3,3.0,262.6,0.0,0.482308
112.000828,40.96092,2728.7,-0.3,3.0,262.6,0.0,0.484422
112.000682,40.960906,2729.16,-0.3,3.0,262.6,0.0,0.48552
112.000503,40.960888,2729.73,-0.3,3.0,262.6,0.0,0.485375
112.000325,40.960871,2730.3,-0.3,3.1,262.6,0.0,0.489092
112.000147,40.960853,2730.87,-0.3,3.1,262.6,0.0,0.494026
111.999959,40.960835,2731.48,-0.3,3.1,262.6,0.0,0.495344
111.999772,40.960816,2732.09,-0.3,3.2,262.6,0.0,0.497483
111.999584,40.960798,2732.7,-0.3,3.2,262.6,0.0,0.500425
111.999403,40.96078,2733.31,-0.3,3.2,262.6,0.0,0.498456
111.999224,40.960762,2733.91,-0.3,3.2,262.6,0.0,0.494132
111.999045,40.960745,2734.51,-0.3,3.2,262.6,0.0,0.493397
111.998884,40.960729,2735.06,-0.3,3.2,262.6,0.0,0.492569
111.99875,40.960716,2735.53,-0.3,3.2,262.6,0.0,0.490533
111.998616,40.960702,2735.99,-0.3,3.2,262.6,0.0,0.490018
111.998482,40.960689,2736.46,-0.3,3.3,262.6,0.0,0.490399
111.998348,40.960676,2736.92,-0.3,3.3,262.6,0.0,0.49332
111.998202,40.960662,2737.43,-0.3,3.3,262.6,0.0,0.49572
111.998027,40.960645,2738.05,-0.3,3.3,262.6,0.0,0.498111
111.997852,40.960627,2738.67,-0.3,3.4,262.6,0.0,0.503664
111.997677,40.96061,2739.29,-0.3,3.4,262.6,0.0,0.510218
111.997486,40.960591,2739.99,-0.3,3.4,262.6,0.0,0.509784
111.997295,40.960572,2740.69,-0.3,3.4,262.6,0.0,0.51024
111.997103,40.960554,2741.39,-0.3,3.4,262.6,0.0,0.511668
111.996964,40.96054,2741.91,-0.3,3.4,262.6,0.0,0.510304
111.996846,40.960528,2742.35,-0.3,3.4,262.6,0.0,0.507015
111.996729,40.960517,2742.79,-0.3,3.5,262.6,0.0,0.508163
111.996612,40.960505,2743.23,-0.3,3.5,262.6,0.0,0.51092
111.996495,40.960494,2743.67,-0.3,3.5,262.6,0.0,0.515914
111.996339,40.960478,2744.26,-0.3,3.5,262.6,0.0,0.520618
111.996156,40.96046,2744.96,-0.3,3.5,262.6,0.0,0.525614
111.995974,40.960442,2745.66,-0.3,3.6,262.6,0.0,0.530879
111.995788,40.960424,2746.38,-0.3,3.6,262.6,0.0,0.535785
111.995596,40.960405,2747.14,-0.3,3.6,262.6,0.0,0.539069
111.995404,40.960386,2747.9,-0.3,3.6,262.6,0.0,0.542491
111.995212,40.960367,2748.65,-0.3,3.6,262.6,0.0,0.546017
111.995082,40.960355,2749.18,-0.3,3.6,262.6,0.0,0.543951
111.994953,40.960342,2749.7,-0.3,3.6,262.6,0.0,0.541428
111.994824,40.960329,2750.23,-0.3,3.7,262.6,0.0,0.538511
111.994695,40.960316,2750.75,-0.3,3.7,262.6,0.0,0.537603
111.994566,40.960304,2751.27,-0.3,3.7,262.6,0.0,0.537474
111.994405,40.960288,2751.94,-0.3,3.7,262.6,0.0,0.539956
111.994239,40.960272,2752.63,-0.3,3.8,262.6,0.0,0.544088
111.994073,40.960255,2753.32,-0.3,3.8,262.6,0.0,0.55085
111.993896,40.960238,2754.07,-0.3,3.8,262.6,0.0,0.555835
111.993711,40.96022,2754.85,-0.3,3.8,262.6,0.0,0.560151
111.993525,40.960201,2755.64,-0.3,3.9,262.6,0.0,0.564821
111.993335,40.960183,2756.46,-0.3,3.9,262.6,0.0,0.568137
111.993131,40.960163,2757.34,-0.3,3.9,262.6,0.0,0.567536
111.992928,40.960143,2758.23,-0.3,3.9,262.6,0.0,0.567777
111.992725,40.960122,2759.11,-0.3,3.9,262.6,0.0,0.568816
111.992603,40.96011,2759.66,-0.3,3.9,262.6,0.0,0.565917
111.992482,40.960099,2760.2,-0.3,3.9,262.6,0.0,0.564871
111.992362,40.960087,2760.74,-0.3,4.0,262.6,0.0,0.565409
111.992241,40.960075,2761.28,-0.3,4.0,262.6,0.0,0.569323
111.99212,40.960063,2761.82,-0.3,4.0,262.6,0.0,0.574713
111.991948,40.960046,2762.61,-0.3,4.0,262.6,0.0,0.579761
111.991771,40.960028,2763.42,-0.3,4.1,262.6,0.0,0.585151
111.991593,40.960011,2764.24,-0.3,4.1,262.6,0.0,0.590929
111.991414,40.959993,2765.07,-0.3,4.1,262.6,0.0,0.593039
111.991235,40.959976,2765.91,-0.3,4.1,262.6,0.0,0.592556
111.991055,40.959958,2766.75,-0.3,4.2,262.6,0.0,0.592141
111.990873,40.95994,2767.61,-0.3,4.2,262.6,0.0,0.591351
111.990685,40.959921,2768.52,-0.3,4.2,262.6,0.0,0.589523
111.990496,40.959903,2769.43,-0.3,4.2,262.6,0.0,0.587911
111.990307,40.959884,2770.33,-0.3,4.2,262.6,0.0,0.586724
111.990184,40.959872,2770.94,-0.3,4.2,262.6,0.0,0.586645
111.99006,40.95986,2771.55,-0.3,4.2,262.6,0.0,0.588598
111.989937,40.959848,2772.15,-0.3,4.3,262.6,0.0,0.592332
111.989814,40.959836,2772.76,-0.3,4.3,262.6,0.0,0.595635
111.989691,40.959823,2773.36,-0.3,4.3,262.6,0.0,0.598553
111.989497,40.959804,2774.34,-0.3,4.3,262.6,0.0,0.597308
111.989294,40.959784,2775.36,-0.3,4.4,262.6,0.0,0.59647
111.989091,40.959764,2776.37,-0.3,4.4,262.6,0.0,0.596498
111.988903,40.959746,2777.33,-0.3,4.4,262.6,0.0,0.593875
111.988726,40.959728,2778.24,-0.3,4.4,262.6,0.0,0.589644
111.98855,40.959711,2779.15,-0.3,4.5,262.6,0.0,0.591074
111.988386,40.959695,2780.0,-0.3,4.5,262.6,0.0,0.59158
111.988253,40.959682,2780.7,-0.3,4.5,262.6,0.0,0.58946
111.98812,40.959669,2781.4,-0.3,4.5,262.6,0.0,0.588003
111.987987,40.959655,2782.1,-0.3,4.5,262.6,0.0,0.585914
111.987854,40.959642,2782.8,-0.3,4.5,262.6,0.0,0.591077
111.9877,40.959627,2783.62,-0.3,4.5,262.6,0.0,0.595111
111.987522,40.95961,2784.57,-0.3,4.5,262.6,0.0,0.598552
111.987344,40.959592,2785.52,-0.3,4.6,262.6,0.0,0.602532
111.987167,40.959575,2786.48,-0.3,4.6,262.6,0.0,0.60687
111.986979,40.959556,2787.51,-0.3,4.6,262.6,0.0,0.606314
111.986789,40.959537,2788.55,-0.3,4.7,262.6,0.0,0.605354
111.9866,40.959519,2789.59,-0.3,4.7,262.6,0.0,0.604686
111.986423,40.959501,2790.58,-0.3,4.7,262.6,0.0,0.603406
111.986255,40.959485,2791.52,-0.3,4.7,262.6,0.0,0.601602
111.986087,40.959468,2792.45,-0.3,4.8,262.6,0.0,0.599963
111.985925,40.959452,2793.37,-0.3,4.8,262.6,0.0,0.597645
111.985778,40.959437,2794.21,-0.3,4.8,262.6,0.0,0.593227
111.98563,40.959423,2795.05,-0.3,4.8,262.6,0.0,0.593311
111.985482,40.959408,2795.89,-0.3,4.9,262.6,0.0,0.593789
111.985335,40.959394,2796.73,-0.3,4.9,262.6,0.0,0.600278
111.985176,40.959378,2797.65,-0.3,4.9,262.6,0.0,0.603615
111.985004,40.959361,2798.65,-0.3,4.9,262.6,0.0,0.604341
111.984833,40.959344,2799.65,-0.3,4.9,262.6,0.0,0.605607
111.984662,40.959327,2800.65,-0.3,4.9,262.6,0.0,0.607406
111.984524,40.959314,2801.47,-0.3,4.9,262.6,0.0,0.604978
111.984391,40.959301,2802.26,-0.3,4.9,262.6,0.0,0.601354
111.984258,40.959288,2803.05,-0.3,5.0,262.6,0.0,0.597119
111.984125,40.959274,2803.84,-0.3,5.0,262.6,0.0,0.595272
111.983987,40.959261,2804.66,-0.3,5.0,262.6,0.0,0.595022
111.983802,40.959243,2805.78,-0.3,5.0,262.6,0.0,0.593255
111.983618,40.959224,2806.91,-0.3,5.1,262.6,0.0,0.592996
111.983433,40.959206,2808.03,-0.3,5.1,262.6,0.0,0.596628
111.98325,40.959188,2809.15,-0.3,5.1,262.6,0.0,0.600063
111.983068,40.95917,2810.27,-0.3,5.2,262.6,0.0,0.603736
111.982886,40.959152,2811.4,-0.3,5.2,262.6,0.0,0.607715
111.982708,40.959134,2812.51,-0.3,5.2,262.6,0.0,0.609267
111.982535,40.959117,2813.59,-0.3,5.2,262.6,0.0,0.608061
111.982362,40.9591,2814.68,-0.3,5.2,262.6,0.0,0.606806
111.982189,40.959083,2815.77,-0.3,5.2,262.6,0.0,0.605633
111.98202,40.959067,2816.85,-0.3,5.2,262.6,0.0,0.603877
111.981852,40.95905,2817.93,-0.3,5.3,262.6,0.0,0.602057
111.981683,40.959033,2819.01,-0.3,5.3,262.6,0.0,0.600269
111.981532,40.959018,2819.99,-0.3,5.3,262.6,0.0,0.597827
111.981393,40.959005,2820.89,-0.3,5.3,262.6,0.0,0.595005
111.981253,40.958991,2821.8,-0.3,5.4,262.6,0.0,0.594085
111.981114,40.958977,2822.71,-0.3,5.4,262.6,0.0,0.593929
111.980975,40.958963,2823.61,-0.3,5.4,262.6,0.0,0.596207
111.980795,40.958946,2824.8,-0.3,5.4,262.6,0.0,0.595121
111.980605,40.958927,2826.06,-0.3,5.5,262.6,0.0,0.593957
111.980416,40.958908,2827.32,-0.3,5.5,262.6,0.0,0.593641
111.980246,40.958891,2828.45,-0.3,5.5,262.6,0.0,0.592572
111.980097,40.958877,2829.45,-0.3,5.5,262.6,0.0,0.589974
111.979948,40.958862,2830.45,-0.3,5.5,262.6,0.0,0.59016
111.9798,40.958847,2831.45,-0.3,5.5,262.6,0.0,0.591294
111.979656,40.958833,2832.44,-0.3,5.5,262.6,0.0,0.591555
111.979512,40.958819,2833.42,-0.3,5.5,262.6,0.0,0.59325
111.979369,40.958805,2834.4,-0.3,5.6,262.6,0.0,0.597343
111.979225,40.95879,2835.39,-0.3,5.6,262.6,0.0,0.601046
111.979079,40.958776,2836.39,-0.3,5.6,262.6,0.0,0.604447
111.978903,40.958759,2837.62,-0.3,5.6,262.6,0.0,0.607174
111.978728,40.958741,2838.84,-0.3,5.7,262.6,0.0,0.609511
111.978552,40.958724,2840.06,-0.3,5.7,262.6,0.0,0.611466
111.978369,40.958706,2841.35,-0.3,5.7,262.6,0.0,0.608536
111.978185,40.958688,2842.66,-0.3,5.8,262.6,0.0,0.604817
111.978001,40.958669,2843.97,-0.3,5.8,262.6,0.0,0.601637
111.977825,40.958652,2845.22,-0.3,5.8,262.6,0.0,0.598227
111.977659,40.958636,2846.41,-0.3,5.8,262.6,0.0,0.594399
111.977493,40.958619,2847.61,-0.3,5.8,262.6,0.0,0.595151
111.977327,40.958603,2848.8,-0.3,5.8,262.6,0.0,0.597524
111.977178,40.958588,2849.89,-0.3,5.8,262.6,0.0,0.59725
111.977032,40.958574,2850.96,-0.3,5.8,262.6,0.0,0.596499
111.976885,40.958559,2852.03,-0.3,5.9,262.5,0.0,0.596211
111.976738,40.958545,2853.11,-0.3,5.9,262.5,0.0,0.598013
111.976591,40.95853,2854.18,-0.3,5.9,262.5,0.0,0.601389
111.976438,40.958515,2855.32,-0.3,5.9,262.5,0.0,0.603554
111.976286,40.9585,2856.45,-0.3,6.0,262.5,0.0,0.605645
111.976133,40.958485,2857.58,-0.3,6.0,262.5,0.0,0.607661
111.975993,40.958471,2858.63,-0.3,6.0,262.5,0.0,0.60641
111.975857,40.958458,2859.66,-0.3,6.0,262.5,0.0,0.603908
111.975721,40.958444,2860.68,-0.3,6.1,262.5,0.0,0.60089
111.975585,40.958431,2861.71,-0.3,6.1,262.5,0.0,0.599655
111.975449,40.958417,2862.73,-0.3,6.1,262.5,0.0,0.60077
111.975294,40.958402,2863.92,-0.3,6.1,262.5,0.0,0.601211
111.975129,40.958385,2865.18,-0.3,6.2,262.5,0.0,0.601522
111.974964,40.958369,2866.44,-0.3,6.2,262.5,0.0,0.604629
111.97479,40.958352,2867.78,-0.3,6.2,262.5,0.0,0.607567
111.974603,40.958333,2869.24,-0.3,6.2,262.5,0.0,0.609774
111.974415,40.958315,2870.7,-0.3,6.2,262.5,0.0,0.612287
111.974225,40.958296,2872.17,-0.3,6.2,262.5,0.0,0.614571
111.974015,40.958275,2873.83,-0.3,6.2,262.5,0.0,0.61072
111.973805,40.958255,2875.49,-0.3,6.3,262.5,0.0,0.608101
111.973595,40.958234,2877.14,-0.3,6.3,262.5,0.0,0.606546
111.973453,40.95822,2878.28,-0.3,6.3,262.5,0.0,0.602651
111.973328,40.958207,2879.28,-0.3,6.3,262.5,0.0,0.597583
111.973204,40.958195,2880.28,-0.3,6.4,262.5,0.0,0.598041
111.973079,40.958183,2881.27,-0.3,6.4,262.5,0.0,0.59943
111.972955,40.95817,2882.27,-0.3,6.4,262.5,0.0,0.601918
111.972787,40.958154,2883.63,-0.3,6.4,262.5,0.0,0.601861
111.9726,40.958135,2885.15,-0.3,6.5,262.5,0.0,0.601155
111.972413,40.958117,2886.67,-0.3,6.5,262.5,0.0,0.604349
111.972238,40.9581,2888.1,-0.3,6.5,262.5,0.0,0.606175
111.972079,40.958084,2889.41,-0.3,6.5,262.5,0.0,0.604757
111.971921,40.958068,2890.71,-0.3,6.5,262.5,0.0,0.603749
111.971761,40.958052,2892.03,-0.3,6.5,262.5,0.0,0.602858
111.971587,40.958035,2893.48,-0.3,6.5,262.5,0.0,0.600341
111.971413,40.958018,2894.93,-0.3,6.6,262.5,0.0,0.600483
111.971239,40.958001,2896.38,-0.3,6.6,262.5,0.0,0.605747
111.971087,40.957985,2897.66,-0.3,6.6,262.5,0.0,0.608487
111.970941,40.957971,2898.9,-0.3,6.6,262.5,0.0,0.610148
111.970795,40.957957,2900.15,-0.3,6.7,262.5,0.0,0.611714
111.970648,40.957942,2901.39,-0.3,6.7,262.5,0.0,0.613347
111.970502,40.957928,2902.63,-0.3,6.7,262.5,0.0,0.614958
111.970338,40.957911,2904.03,-0.3,6.7,262.5,0.0,0.617473
111.970166,40.957894,2905.51,-0.3,6.8,262.5,0.0,0.620098
111.969994,40.957877,2906.98,-0.3,6.8,262.5,0.0,0.622551
111.969815,40.957859,2908.53,-0.3,6.8,262.5,0.0,0.622567
111.969625,40.957841,2910.18,-0.3,6.8,262.5,0.0,0.619389
111.969436,40.957822,2911.83,-0.3,6.9,262.5,0.0,0.616801
111.969252,40.957804,2913.43,-0.3,6.9,262.5,0.0,0.614403
111.969128,40.957791,2914.52,-0.3,6.9,262.5,0.0,0.608055
111.969005,40.957779,2915.61,-0.3,6.9,262.5,0.0,0.602564
111.968881,40.957767,2916.7,-0.3,6.9,262.5,0.0,0.600095
111.968758,40.957755,2917.79,-0.3,6.9,262.5,0.0,0.603312
111.968635,40.957743,2918.88,-0.3,6.9,262.5,0.0,0.607904
111.96845,40.957724,2920.53,-0.3,6.9,262.5,0.0,0.612227
111.968265,40.957706,2922.19,-0.3,7.0,262.5,0.0,0.616976
111.96808,40.957688,2923.84,-0.3,7.0,262.5,0.0,0.622063
111.967905,40.95767,2925.42,-0.3,7.0,262.5,0.0,0.622453
111.967734,40.957653,2926.97,-0.3,7.1,262.5,0.0,0.620735
111.967563,40.957636,2928.52,-0.3,7.1,262.5,0.0,0.618995
111.967409,40.957621,2929.92,-0.3,7.1,262.5,0.0,0.617423
111.967282,40.957609,2931.08,-0.3,7.1,262.5,0.0,0.615928
111.967155,40.957596,2932.25,-0.3,7.1,262.5,0.0,0.614091
111.967028,40.957583,2933.41,-0.3,7.2,262.5,0.0,0.612016
111.966902,40.957571,2934.57,-0.3,7.2,262.5,0.0,0.610548
111.966753,40.957556,2935.95,-0.3,7.2,262.5,0.0,0.609126
111.96655,40.957536,2937.83,-0.3,7.2,262.5,0.0,0.609159
111.966348,40.957516,2939.71,-0.3,7.3,262.5,0.0,0.613723
111.966146,40.957496,2941.58,-0.3,7.3,262.5,0.0,0.620004
111.965995,40.957481,2943.0,-0.3,7.3,262.5,0.0,0.618352
111.965845,40.957466,2944.42,-0.3,7.3,262.5,0.0,0.616974
111.965695,40.957451,2945.83,-0.3,7.3,262.5,0.0,0.615729
111.965511,40.957433,2947.58,-0.3,7.3,262.5,0.0,0.612228
111.965312,40.957413,2949.47,-0.3,7.4,262.5,0.0,0.60836
111.965113,40.957394,2951.37,-0.3,7.4,262.5,0.0,0.612322
111.964942,40.957377,2953.0,-0.3,7.4,262.5,0.0,0.615631
111.964814,40.957364,2954.24,-0.3,7.4,262.5,0.0,0.615439
111.964686,40.957351,2955.47,-0.3,7.4,262.5,0.0,0.615139
111.964558,40.957339,2956.7,-0.3,7.5,262.5,0.0,0.61528
111.964431,40.957326,2957.94,-0.3,7.5,262.5,0.0,0.621463
111.96429,40.957312,2959.3,-0.3,7.5,262.5,0.0,0.62594
111.964117,40.957295,2960.99,-0.3,7.5,262.5,0.0,0.627244
111.963945,40.957278,2962.67,-0.3,7.6,262.5,0.0,0.629219
111.963773,40.957261,2964.36,-0.3,7.6,262.5,0.0,0.631961
111.963576,40.957241,2966.31,-0.3,7.6,262.5,0.0,0.62809
111.963378,40.957222,2968.26,-0.3,7.7,262.5,0.0,0.626752
111.963181,40.957202,2970.21,-0.3,7.7,262.5,0.0,0.627959
111.963014,40.957185,2971.87,-0.3,7.7,262.5,0.0,0.628344
111.962862,40.95717,2973.39,-0.3,7.7,262.5,0.0,0.627953
111.962709,40.957155,2974.92,-0.3,7.7,262.5,0.0,0.632863
111.962563,40.957141,2976.39,-0.3,7.7,262.5,0.0,0.63814
111.962427,40.957127,2977.77,-0.3,7.7,262.5,0.0,0.643127
111.962291,40.957114,2979.14,-0.3,7.7,262.5,0.0,0.649495
111.962154,40.9571,2980.52,-0.3,7.8,262.5,0.0,0.656609
111.962018,40.957087,2981.9,-0.3,7.8,262.5,0.0,0.66335
111.961867,40.957072,2983.43,-0.3,7.8,262.5,0.0,0.667518
111.96168,40.957053,2985.35,-0.3,7.8,262.5,0.0,0.666487
111.961493,40.957034,2987.27,-0.3,7.9,262.5,0.0,0.665619
111.961306,40.957016,2989.19,-0.3,7.9,262.5,0.0,0.664852
111.961182,40.957004,2990.48,-0.3,7.9,262.5,0.0,0.665785
111.961058,40.956991,2991.76,-0.3,7.9,262.5,0.0,0.666445
111.960935,40.956979,2993.04,-0.3,8.0,262.5,0.0,0.666834
111.960812,40.956967,2994.32,-0.3,8.0,262.5,0.0,0.666421
111.960689,40.956955,2995.6,-0.3,8.0,262.5,0.0,0.664993
111.9605,40.956936,2997.58,-0.3,8.0,262.5,0.0,0.663294
111.960304,40.956916,2999.64,-0.3,8.1,262.5,0.0,0.664959
111.960109,40.956897,3001.7,-0.3,8.1,262.5,0.0,0.671958
111.959928,40.956879,3003.61,-0.3,8.1,262.5,0.0,0.676756
111.959759,40.956862,3005.41,-0.3,8.1,262.5,0.0,0.67995
111.959589,40.956846,3007.22,-0.3,8.2,262.5,0.0,0.683861
111.959429,40.95683,3008.93,-0.3,8.2,262.5,0.0,0.686492
111.959291,40.956816,3010.42,-0.3,8.2,262.5,0.0,0.684921
111.959152,40.956802,3011.91,-0.3,8.2,262.5,0.0,0.688602
111.959014,40.956788,3013.4,-0.3,8.3,262.5,0.0,0.693137
111.958876,40.956775,3014.89,-0.3,8.3,262.5,0.0,0.698001
111.958731,40.95676,3016.47,-0.3,8.3,262.5,0.0,0.69935
111.958578,40.956745,3018.14,-0.3,8.3,262.5,0.0,0.69721
111.958424,40.95673,3019.82,-0.3,8.4,262.5,0.0,0.698386
111.958271,40.956715,3021.49,-0.3,8.4,262.5,0.0,0.701201
111.958082,40.956696,3023.58,-0.3,8.4,262.5,0.0,0.704235
111.957887,40.956677,3025.73,-0.3,8.5,262.5,0.0,0.709203
111.957694,40.956657,3027.87,-0.3,8.5,262.5,0.0,0.717027
111.957505,40.956638,3029.97,-0.3,8.5,262.5,0.0,0.721018
111.957322,40.95662,3032.02,-0.3,8.5,262.5,0.0,0.722944
111.957138,40.956602,3034.08,-0.3,8.6,262.5,0.0,0.72586
111.956962,40.956585,3036.05,-0.3,8.6,262.5,0.0,0.727712
111.956806,40.956569,3037.82,-0.3,8.6,262.5,0.0,0.724941
111.956651,40.956554,3039.58,-0.3,8.7,262.5,0.0,0.727017
111.956495,40.956538,3041.35,-0.3,8.7,262.5,0.0,0.729827
111.956367,40.956525,3042.81,-0.3,8.7,262.5,0.0,0.733752
111.956239,40.956513,3044.27,-0.3,8.7,262.5,0.0,0.738803
111.956112,40.9565,3045.74,-0.3,8.8,262.5,0.0,0.745264
111.955984,40.956487,3047.2,-0.3,8.8,262.5,0.0,0.751229
111.955857,40.956475,3048.66,-0.3,8.8,262.5,0.0,0.756909
111.955695,40.956459,3050.54,-0.3,8.8,262.5,0.0,0.75767
111.955528,40.956442,3052.47,-0.3,8.8,262.5,0.0,0.757643
111.955362,40.956426,3054.39,-0.3,8.8,262.5,0.0,0.757346
111.955208,40.95641,3056.19,-0.3,8.8,262.5,0.0,0.756944
111.955063,40.956396,3057.9,-0.3,8.9,262.5,0.0,0.756408
111.954918,40.956381,3059.6,-0.3,8.9,262.5,0.0,0.755818
111.954773,40.956367,3061.31,-0.3,8.9,262.5,0.0,0.756495
111.954628,40.956353,3063.01,-0.3,9.0,262.5,0.0,0.760996
111.954462,40.956336,3064.99,-0.3,9.0,262.5,0.0,0.76217
111.95429,40.956319,3067.05,-0.3,9.1,262.5,0.0,0.762946
111.954119,40.956302,3069.1,-0.3,9.1,262.5,0.0,0.764041
111.953948,40.956285,3071.15,-0.3,9.1,262.5,0.0,0.767354
111.953777,40.956268,3073.2,-0.3,9.1,262.5,0.0,0.772944
111.953605,40.956251,3075.26,-0.3,9.2,262.5,0.0,0.779104
111.953434,40.956234,3077.31,-0.3,9.2,262.5,0.0,0.785771
111.953248,40.956215,3079.57,-0.3,9.2,262.5,0.0,0.783703
111.95306,40.956197,3081.86,-0.3,9.3,262.5,0.0,0.783856
111.952872,40.956178,3084.15,-0.3,9.3,262.5,0.0,0.788746
111.952717,40.956162,3086.06,-0.3,9.3,262.5,0.0,0.790721
111.952584,40.956149,3087.71,-0.3,9.3,262.5,0.0,0.790094
111.95245,40.956136,3089.36,-0.3,9.4,262.5,0.0,0.789094
111.952317,40.956123,3091.01,-0.3,9.4,262.5,0.0,0.788999
111.952184,40.956109,3092.66,-0.3,9.4,262.5,0.0,0.79215
111.952016,40.956093,3094.75,-0.3,9.4,262.5,0.0,0.796827
111.95184,40.956075,3096.96,-0.3,9.5,262.5,0.0,0.801956
111.951663,40.956058,3099.17,-0.3,9.5,262.5,0.0,0.812292
111.951491,40.956041,3101.34,-0.3,9.5,262.5,0.0,0.817937
