经度(°),纬度(°),高度(m),滚转(°),俯仰(°),航向(°),滚转率(°/s),转弯率(°/s)
111.951893,41.010225,6912.94,13.6,14.9,132.3,25.431762,0.738873
111.951969,41.010173,6915.01,15.8,14.9,132.3,29.817457,0.766619
111.952042,41.010124,6917.0,18.7,14.9,132.4,35.453822,0.791519
111.952114,41.010075,6918.99,21.6,14.9,132.4,41.090186,0.819705
111.952186,41.010025,6920.97,24.5,14.9,132.5,46.72655,0.850866
111.952268,41.009969,6923.23,28.9,14.9,132.6,55.086302,0.879276
111.95235,41.009913,6925.5,33.4,14.9,132.7,63.482012,0.912052
111.952432,41.009857,6927.76,37.9,14.9,132.8,71.877728,0.952022
111.952513,41.009801,6930.02,42.3,14.9,132.9,79.357482,0.994668
111.952595,41.009744,6932.28,46.8,14.9,133.0,86.419856,1.039699
111.952682,41.009684,6934.71,52.9,14.8,133.1,96.679101,1.081405
111.95277,41.009623,6937.15,59.1,14.8,133.3,106.570472,1.126367
111.952858,41.009563,6939.6,65.4,14.7,133.4,115.233583,1.174817
111.952956,41.009494,6942.32,73.3,14.6,133.6,127.098277,1.213943
111.953061,41.009421,6945.24,82.3,14.4,133.6,141.215882,1.249284
111.953165,41.009348,6948.15,91.3,14.2,133.7,155.333487,1.289809
111.953267,41.009276,6950.97,100.3,14.0,133.8,169.017361,1.326826
111.953362,41.00921,6953.55,109.5,13.9,133.8,181.623418,1.346716
111.953456,41.009143,6956.13,118.7,13.7,133.8,194.229488,1.372435
111.95355,41.009077,6958.72,127.9,13.5,133.8,206.835559,1.40404
111.953614,41.009032,6960.42,134.1,13.4,133.8,210.328572,1.415135
111.953677,41.008987,6962.11,140.2,13.3,133.7,213.701115,1.426426
111.95374,41.008943,6963.8,146.4,13.3,133.7,217.07363,1.437336
111.953803,41.008898,6965.49,152.5,13.2,133.6,220.446186,1.447413
111.953866,41.008853,6967.18,158.7,13.1,133.6,223.818728,1.45737
111.953956,41.008789,6969.56,167.6,13.0,133.5,229.41417,1.45936
111.954051,41.008722,6972.04,176.8,12.9,133.5,235.292968,1.460952
111.954145,41.008656,6974.51,186.0,12.8,133.4,241.171739,1.46313
111.954241,41.008587,6977.02,-164.6,12.8,133.4,244.240297,1.458291
111.95434,41.008518,6979.55,-155.1,12.8,133.3,245.331215,1.449451
111.954438,41.008448,6982.09,-145.5,12.7,133.2,246.422133,1.443443
111.954528,41.008384,6984.42,-136.7,12.7,133.2,245.891619,1.435825
111.954599,41.008334,6986.21,-129.8,12.6,133.2,241.331894,1.419839
111.95467,41.008283,6988.01,-122.9,12.6,133.2,236.772169,1.413914
111.954741,41.008233,6989.8,-116.0,12.6,133.1,232.212498,1.417802
111.954812,41.008183,6991.6,-109.1,12.5,133.1,233.62367,1.416369
111.954885,41.008131,6993.45,-102.0,12.5,133.1,235.603714,1.411275
111.95497,41.008071,6995.56,-93.8,12.5,133.1,239.714232,1.396354
111.955054,41.008011,6997.67,-85.5,12.4,133.0,243.824694,1.381618
111.955139,41.007951,6999.77,-77.3,12.4,133.0,247.935266,1.367247
111.955237,41.007882,7002.17,-67.9,12.4,132.9,249.098802,1.337028
111.955337,41.007811,7004.6,-58.3,12.4,132.9,249.886678,1.306106
111.955436,41.007741,7007.03,-48.7,12.4,132.8,250.674554,1.276488
111.95552,41.007681,7009.07,-40.6,12.4,132.8,248.081049,1.244583
111.955593,41.00763,7010.83,-33.5,12.5,132.8,243.107825,1.209315
111.955666,41.007579,7012.6,-26.4,12.5,132.7,238.134573,1.176103
111.955739,41.007527,7014.36,-19.4,12.5,132.7,234.678306,1.145507
111.955812,41.007476,7016.12,-12.3,12.6,132.7,234.992003,1.124166
111.955898,41.007416,7018.18,-4.0,12.6,132.7,237.756863,1.108053
111.955997,41.007346,7020.56,5.5,12.7,132.8,243.104437,1.098277
111.956096,41.007276,7022.94,15.1,12.8,132.9,248.452038,1.109918
111.956191,41.007209,7025.24,24.4,12.8,132.9,252.686728,1.122092
111.956273,41.007151,7027.19,32.3,12.8,133.0,252.080699,1.130492
111.956355,41.007094,7029.15,40.2,12.8,133.2,251.474615,1.139933
111.956436,41.007036,7031.11,48.1,12.8,133.3,250.868559,1.150576
111.956538,41.006964,7033.54,58.0,12.7,133.4,251.821316,1.157801
111.956642,41.00689,7036.04,68.2,12.6,133.5,252.972831,1.171653
111.956747,41.006816,7038.54,78.4,12.5,133.6,254.124373,1.194962
111.956827,41.006759,7040.43,86.2,12.5,133.7,253.426191,1.210219
111.956889,41.006715,7041.9,92.2,12.4,133.7,251.426203,1.218219
111.956951,41.00667,7043.37,98.3,12.3,133.8,249.426187,1.228311
111.957014,41.006626,7044.84,104.3,12.2,133.8,247.426171,1.240202
111.957076,41.006582,7046.32,110.4,12.1,133.8,245.426182,1.260289
111.957165,41.006518,7048.38,119.0,12.0,133.8,246.141084,1.270082
111.957282,41.006435,7051.08,130.4,11.9,133.8,249.716852,1.272822
111.957399,41.006351,7053.78,141.8,11.7,133.8,253.292593,1.278886
111.957511,41.006271,7056.36,152.6,11.6,133.8,256.494531,1.285355
111.9576,41.006207,7058.38,161.3,11.5,133.8,258.070283,1.280605
111.95769,41.006143,7060.41,170.0,11.5,133.7,259.646035,1.28393
111.957779,41.006079,7062.43,178.7,11.4,133.7,261.221814,1.290238
111.957853,41.006026,7064.09,185.9,11.4,133.7,255.793016,1.291874
111.957926,41.005975,7065.7,192.9,11.3,133.7,249.471048,1.29237
111.957998,41.005923,7067.31,200.0,11.3,133.7,243.149079,1.293588
111.95807,41.005872,7068.93,207.0,11.2,133.7,241.666737,1.298345
111.958143,41.00582,7070.54,-146.0,11.2,133.7,243.616073,1.306529
111.958217,41.005767,7072.18,-138.8,11.1,133.7,245.831786,1.316955
111.958291,41.005714,7073.81,-131.6,11.1,133.7,248.047445,1.326723
111.958365,41.005661,7075.44,-124.5,11.0,133.7,250.263104,1.335767
111.958455,41.005596,7077.43,-115.7,11.0,133.7,250.603247,1.338917
111.958564,41.005518,7079.79,-105.1,10.9,133.7,248.966898,1.337262
111.958673,41.00544,7082.16,-94.6,10.8,133.6,247.330494,1.33662
111.958775,41.005367,7084.36,-84.7,10.7,133.6,245.264443,1.334508
111.958844,41.005317,7085.83,-78.0,10.7,133.6,241.328888,1.322137
111.958914,41.005267,7087.31,-71.3,10.6,133.5,237.393279,1.309611
111.958984,41.005217,7088.79,-64.6,10.6,133.5,233.457669,1.296841
111.959053,41.005167,7090.26,-57.8,10.5,133.4,232.495159,1.280567
111.959134,41.005109,7091.96,-50.1,10.5,133.4,233.973758,1.264347
111.959231,41.005039,7093.99,-40.7,10.5,133.3,238.719975,1.249359
111.959329,41.00497,7096.02,-31.3,10.6,133.3,243.466191,1.24492
111.959426,41.0049,7098.05,-21.9,10.6,133.2,248.210331,1.247725
111.959525,41.004829,7100.07,-12.3,10.7,133.2,252.93256,1.236807
111.959624,41.004758,7102.1,-2.8,10.7,133.2,257.654762,1.228235
111.959723,41.004688,7104.13,6.7,10.8,133.2,262.376963,1.221909
111.959807,41.004627,7105.85,14.8,10.8,133.2,260.96213,1.212604
111.959875,41.004578,7107.25,21.4,10.8,133.3,253.079518,1.196656
111.959943,41.004529,7108.64,28.0,10.9,133.4,245.196934,1.195539
111.960012,41.004481,7110.04,34.6,10.9,133.4,238.740738,1.194591
111.96008,41.004432,7111.43,41.2,10.9,133.5,238.490726,1.205372
111.96017,41.004367,7113.26,50.0,10.9,133.6,242.489474,1.215582
111.96027,41.004295,7115.29,59.7,10.8,133.7,248.425127,1.226792
111.96037,41.004223,7117.32,69.4,10.7,133.7,254.360753,1.246358
111.960463,41.004156,7119.19,78.3,10.7,133.8,256.82768,1.260585
111.960544,41.004098,7120.8,86.2,10.6,133.9,253.797371,1.263963
111.960626,41.004039,7122.42,94.1,10.5,133.9,250.767062,1.2682
111.960708,41.003979,7124.07,102.1,10.4,134.0,247.999989,1.272298
111.960806,41.003909,7125.99,111.7,10.3,134.0,247.999989,1.268615
111.960904,41.003838,7127.91,121.2,10.2,134.1,248.000016,1.270336
111.961003,41.003767,7129.83,130.7,10.1,134.1,248.000016,1.281988
111.9611,41.003696,7131.71,140.2,10.1,134.1,250.687012,1.285019
111.961197,41.003626,7133.56,149.5,10.0,134.1,256.205969,1.278085
111.961294,41.003556,7135.41,158.9,9.9,134.1,261.724953,1.27348
111.961384,41.003491,7137.14,167.7,9.8,134.1,266.111383,1.270146
111.96145,41.003443,7138.37,174.0,9.8,134.1,265.569694,1.273795
111.961516,41.003396,7139.61,180.4,9.7,134.1,260.779382,1.275532
111.961581,41.003349,7140.84,186.7,9.7,134.1,254.052083,1.276512
111.961647,41.003301,7142.07,193.0,9.6,134.1,247.324784,1.277496
111.961733,41.003239,7143.69,-158.6,9.6,134.1,246.013524,1.274758
111.961852,41.003153,7145.9,-147.1,9.5,134.1,253.286255,1.267824
111.961971,41.003067,7148.11,-135.6,9.4,134.2,260.558931,1.271411
111.962086,41.002984,7150.23,-124.6,9.3,134.2,266.614358,1.282016
111.96215,41.002937,7151.4,-118.4,9.2,134.2,259.872579,1.283161
111.962214,41.002891,7152.56,-112.3,9.2,134.2,253.130745,1.285042
111.962277,41.002845,7153.73,-106.1,9.1,134.1,246.388966,1.291479
111.962341,41.002798,7154.9,-99.9,9.1,134.1,239.806958,1.299947
111.962405,41.002752,7156.06,-93.8,9.0,134.1,233.393411,1.311954
111.962505,41.002679,7157.84,-84.2,8.9,134.0,233.90715,1.3092
111.962605,41.002606,7159.63,-74.5,8.8,134.0,235.645624,1.308295
111.962706,41.002533,7161.42,-64.8,8.7,133.9,242.312217,1.30886
111.962803,41.002462,7163.13,-55.5,8.7,133.9,248.396112,1.298117
111.9629,41.002392,7164.8,-46.2,8.7,133.8,254.214341,1.281572
111.962996,41.002322,7166.47,-37.0,8.7,133.7,260.032569,1.265524
111.96308,41.002261,7167.92,-28.9,8.7,133.7,259.530195,1.251777
111.963145,41.002214,7169.02,-22.6,8.7,133.7,249.009682,1.24067
111.96321,41.002167,7170.13,-16.4,8.7,133.7,238.489196,1.231646
111.963275,41.002119,7171.24,-10.1,8.8,133.6,228.899392,1.224153
111.96334,41.002072,7172.34,-3.9,8.8,133.6,229.095432,1.217627
111.963416,41.002017,7173.63,3.5,8.8,133.6,231.4226,1.212124
111.96352,41.001942,7175.37,13.4,8.9,133.6,239.048288,1.212105
111.963623,41.001867,7177.11,23.4,8.9,133.7,246.673976,1.216695
111.963727,41.001792,7178.86,33.4,9.0,133.7,254.299663,1.225595
111.963826,41.00172,7180.5,42.9,9.0,133.8,254.160792,1.230739
111.963924,41.001648,7182.15,52.5,8.9,133.9,253.918348,1.238321
111.964023,41.001576,7183.79,62.0,8.9,134.1,253.675958,1.255939
111.964099,41.001521,7185.04,69.3,8.9,134.1,249.57697,1.263337
111.964164,41.001473,7186.11,75.7,8.8,134.2,243.719564,1.265999
111.964229,41.001425,7187.18,82.0,8.8,134.2,237.862157,1.268555
111.964294,41.001378,7188.25,88.3,8.8,134.2,234.316114,1.267865
111.96436,41.00133,7189.32,94.6,8.7,134.3,234.433758,1.260823
111.964443,41.001269,7190.66,102.6,8.6,134.3,238.024279,1.255061
111.964538,41.001199,7192.18,111.9,8.6,134.3,244.059926,1.25133
111.964634,41.001129,7193.71,121.2,8.5,134.4,250.095573,1.266307
111.964731,41.001058,7195.25,130.6,8.4,134.4,254.208795,1.275971
111.964831,41.000985,7196.8,140.2,8.3,134.4,253.542141,1.272663
111.964931,41.000912,7198.35,149.8,8.2,134.4,252.87546,1.270979
111.965031,41.000839,7199.91,159.5,8.1,134.4,252.208779,1.271141
111.965115,41.000777,7201.19,167.6,8.0,134.4,249.269448,1.263891
111.965198,41.000716,7202.46,175.6,8.0,134.4,246.299736,1.256183
111.965282,41.000655,7203.74,183.7,7.9,134.4,243.330079,1.248412
111.965362,41.000597,7204.95,-168.6,7.9,134.4,244.123802,1.241301
111.965441,41.000539,7206.13,-161.0,7.8,134.4,246.633596,1.234824
111.965519,41.000482,7207.31,-153.5,7.8,134.5,249.14339,1.239371
111.965598,41.000424,7208.49,-145.9,7.8,134.5,251.653184,1.248414
111.965676,41.000367,7209.67,-138.3,7.7,134.5,254.162978,1.263366
111.965757,41.000308,7210.87,-130.6,7.6,134.5,253.52848,1.274903
111.965838,41.000248,7212.07,-122.7,7.6,134.5,250.680018,1.2846
111.96592,41.000188,7213.28,-114.9,7.5,134.6,247.831502,1.294557
111.96601,41.000121,7214.6,-106.2,7.4,134.6,246.44317,1.303315
111.966122,41.000039,7216.21,-95.5,7.2,134.5,248.685603,1.307762
111.966234,40.999957,7217.82,-84.7,7.1,134.5,250.927982,1.312189
111.966345,40.999874,7219.43,-73.9,7.0,134.4,253.170415,1.316943
111.966439,40.999805,7220.74,-64.9,7.0,134.3,255.054017,1.301212
111.966533,40.999736,7222.04,-55.9,6.9,134.3,256.932811,1.285699
111.966626,40.999668,7223.34,-46.9,6.9,134.2,258.81155,1.271085
111.966698,40.999614,7224.33,-40.0,6.9,134.2,257.272298,1.260737
111.966761,40.999568,7225.18,-33.9,6.9,134.1,254.174234,1.251967
111.966824,40.999522,7226.03,-27.9,7.0,134.1,251.076197,1.253571
111.966886,40.999476,7226.88,-21.9,7.0,134.1,247.978132,1.255562
111.966949,40.99943,7227.73,-15.9,7.0,134.0,244.880095,1.256375
111.96704,40.999362,7228.95,-7.1,7.0,134.0,247.014092,1.253275
111.967152,40.99928,7230.43,3.7,7.0,134.0,252.832293,1.248693
111.967264,40.999198,7231.91,14.4,7.1,134.0,258.650439,1.245412
111.967367,40.999122,7233.28,24.4,7.1,134.0,261.166135,1.242659
111.96745,40.999061,7234.36,32.3,7.1,134.1,255.469156,1.239608
111.967532,40.999001,7235.44,40.2,7.2,134.1,249.772204,1.236689
111.967614,40.99894,7236.53,48.1,7.2,134.2,244.075225,1.233729
111.967687,40.998887,7237.46,55.1,7.2,134.3,239.975445,1.229986
111.967759,40.998834,7238.39,62.0,7.1,134.4,235.89703,1.229256
111.967831,40.99878,7239.32,69.0,7.1,134.4,231.818615,1.240443
111.967903,40.998727,7240.25,76.0,7.0,134.5,231.833996,1.254235
111.967975,40.998674,7241.18,82.9,7.0,134.6,233.716315,1.268163
111.968072,40.998602,7242.39,92.2,6.9,134.7,240.29029,1.274803
111.968171,40.998529,7243.63,101.8,6.8,134.7,247.46319,1.281127
111.96827,40.998455,7244.88,111.4,6.7,134.8,254.636119,1.288578
111.968361,40.998388,7245.99,120.2,6.6,134.8,254.506044,1.292934
111.968445,40.998325,7247.01,128.3,6.6,134.8,249.233357,1.294337
111.968529,40.998263,7248.02,136.4,6.5,134.8,243.960615,1.295188
111.968623,40.998193,7249.15,145.5,6.4,134.8,242.198781,1.289729
111.968741,40.998106,7250.53,156.9,6.3,134.8,249.168497,1.271431
111.968859,40.998018,7251.92,168.3,6.3,134.8,256.138214,1.255269
111.968977,40.997931,7253.3,179.6,6.2,134.8,263.107903,1.241452
111.969041,40.997884,7254.03,185.7,6.2,134.8,261.342545,1.232116
111.969103,40.997838,7254.74,191.8,6.1,134.8,259.460199,1.226082
111.969166,40.997791,7255.46,197.8,6.1,134.9,257.577826,1.234369
111.969228,40.997745,7256.17,203.8,6.0,134.9,255.695454,1.248143
111.96929,40.997699,7256.89,209.8,6.0,134.9,253.813108,1.263941
111.969386,40.997628,7257.96,-141.0,5.9,134.9,253.546239,1.270135
111.969485,40.997554,7259.08,-131.4,5.8,134.9,253.485641,1.277092
111.969584,40.997481,7260.2,-121.9,5.7,134.9,253.424989,1.286207
111.969685,40.997406,7261.31,-112.2,5.6,134.9,255.284768,1.28523
111.969786,40.997331,7262.41,-102.5,5.6,134.9,258.496924,1.277966
111.969887,40.997255,7263.51,-92.7,5.5,134.9,261.709053,1.282772
111.969977,40.997188,7264.49,-84.1,5.4,134.9,260.906396,1.286386
111.970039,40.997142,7265.14,-78.1,5.3,134.8,250.118522,1.285466
111.970101,40.997095,7265.8,-72.1,5.3,134.8,239.330648,1.283185
111.970164,40.997048,7266.45,-66.1,5.2,134.7,228.542774,1.279558
111.970226,40.997002,7267.11,-60.1,5.1,134.6,228.36131,1.281658
111.970295,40.99695,7267.82,-53.5,5.1,134.6,229.567248,1.281913
111.970393,40.996878,7268.8,-44.1,5.1,134.5,236.194662,1.279148
111.97049,40.996805,7269.77,-34.8,5.1,134.5,242.822077,1.276531
111.970587,40.996733,7270.75,-25.5,5.1,134.4,249.449546,1.274744
111.970686,40.996659,7271.71,-16.0,5.2,134.4,250.0388,1.261401
111.970785,40.996585,7272.68,-6.5,5.2,134.3,249.856981,1.247509
111.970883,40.996512,7273.64,3.0,5.3,134.3,249.675188,1.234148
111.970987,40.996434,7274.64,12.9,5.3,134.3,250.240127,1.227935
111.971094,40.996355,7275.66,23.2,5.3,134.4,251.331017,1.227653
111.971201,40.996275,7276.68,33.5,5.4,134.5,252.421908,1.229298
111.971294,40.996206,7277.57,42.5,5.4,134.5,253.155006,1.229782
111.971355,40.99616,7278.15,48.4,5.4,134.6,252.99813,1.221302
111.971417,40.996114,7278.72,54.3,5.4,134.6,252.841309,1.218422
111.971478,40.996068,7279.29,60.3,5.3,134.7,252.684433,1.220486
111.971539,40.996023,7279.86,66.2,5.3,134.8,252.527557,1.237751
111.971611,40.995968,7280.53,73.2,5.3,134.8,253.271501,1.253151
111.971732,40.995878,7281.62,84.8,5.2,134.9,257.938187,1.26545
111.971853,40.995787,7282.71,96.5,5.1,135.0,262.604846,1.280707
111.971974,40.995697,7283.8,108.2,5.0,135.1,267.271531,1.298627
111.972047,40.995641,7284.43,115.3,4.9,135.1,262.617249,1.291564
111.972115,40.99559,7285.01,121.9,4.9,135.1,256.772547,1.280292
111.972183,40.995539,7285.59,128.4,4.8,135.1,250.927845,1.267948
111.972251,40.995488,7286.16,135.0,4.8,135.1,244.158608,1.258296
111.972321,40.995436,7286.75,141.8,4.7,135.1,237.12335,1.249735
111.972412,40.995368,7287.48,150.5,4.6,135.1,234.143147,1.236122
111.972503,40.995299,7288.21,159.3,4.6,135.1,233.658231,1.226727
111.972594,40.995231,7288.94,168.1,4.5,135.1,239.38029,1.229774
111.972685,40.995162,7289.68,176.9,4.5,135.2,245.102349,1.237445
111.972776,40.995094,7290.41,185.7,4.4,135.2,250.824381,1.249751
111.972867,40.995026,7291.14,194.5,4.3,135.2,256.54644,1.262493
111.972962,40.994955,7291.89,-156.4,4.3,135.2,260.803889,1.27295
111.973072,40.994872,7292.74,-145.8,4.2,135.2,258.68265,1.273599
111.973182,40.994789,7293.59,-135.2,4.1,135.3,256.561467,1.276102
111.973292,40.994706,7294.43,-124.6,4.0,135.3,254.440229,1.280252
111.973368,40.994649,7295.0,-117.3,3.9,135.3,254.707152,1.278053
111.973439,40.994596,7295.52,-110.5,3.8,135.3,255.279085,1.278706
111.97351,40.994542,7296.05,-103.6,3.7,135.3,255.851073,1.285574
111.973582,40.994488,7296.57,-96.7,3.7,135.3,256.600863,1.285202
111.973655,40.994433,7297.08,-89.7,3.6,135.2,257.090725,1.279324
111.973727,40.994378,7297.59,-82.7,3.5,135.2,253.52553,1.270367
111.9738,40.994323,7298.11,-75.7,3.5,135.2,249.96028,1.264848
111.973873,40.994268,7298.62,-68.7,3.4,135.1,246.395085,1.270331
111.973959,40.994203,7299.2,-60.4,3.4,135.1,245.455306,1.267807
111.97406,40.994127,7299.86,-50.7,3.4,135.0,247.284048,1.258337
111.97416,40.994051,7300.52,-41.0,3.3,134.9,249.11279,1.260776
111.974261,40.993975,7301.17,-31.3,3.3,134.8,250.317089,1.260897
111.974364,40.993897,7301.8,-21.4,3.4,134.8,248.801989,1.244495
111.974466,40.99382,7302.43,-11.6,3.4,134.7,247.286835,1.227593
111.974568,40.993743,7303.07,-1.7,3.5,134.7,245.771708,1.210088
111.974641,40.993688,7303.51,5.3,3.5,134.7,245.314577,1.207338
111.97471,40.993636,7303.92,12.0,3.5,134.7,244.992574,1.208586
111.974779,40.993583,7304.34,18.7,3.6,134.8,244.670599,1.213595
111.974849,40.993531,7304.75,25.4,3.6,134.8,244.170848,1.218373
111.974921,40.993477,7305.18,32.3,3.6,134.8,244.038452,1.223232
111.975019,40.993402,7305.75,41.9,3.6,134.9,249.093994,1.231202
111.975118,40.993328,7306.32,51.4,3.6,135.0,254.149536,1.239978
111.975217,40.993253,7306.9,60.9,3.6,135.1,259.205078,1.249392
111.975318,40.993176,7307.47,70.8,3.6,135.1,262.271997,1.253103
111.975424,40.993096,7308.05,80.9,3.5,135.2,263.241665,1.250535
111.975529,40.993016,7308.62,91.1,3.4,135.3,264.211361,1.254825
111.975628,40.992941,7309.16,100.7,3.3,135.4,263.951868,1.257794
111.975701,40.992885,7309.52,107.8,3.2,135.4,258.338272,1.248339
111.975773,40.99283,7309.89,114.8,3.2,135.4,252.724649,1.240542
111.975846,40.992775,7310.25,121.8,3.1,135.5,247.111026,1.232224
111.975919,40.99272,7310.62,128.9,3.0,135.5,247.103076,1.236659
111.976,40.992658,7311.01,136.8,3.0,135.5,249.607241,1.237967
111.976097,40.992584,7311.46,146.2,2.9,135.5,254.959542,1.233192
111.976194,40.992511,7311.9,155.5,2.8,135.5,260.311787,1.232647
111.976288,40.992439,7312.34,164.7,2.7,135.5,264.761683,1.234373
111.976361,40.992384,7312.65,171.7,2.7,135.5,259.706141,1.228855
111.976433,40.992328,7312.96,178.7,2.6,135.5,254.650599,1.225005
111.976506,40.992274,7313.27,185.7,2.6,135.5,249.595056,1.225922
111.976578,40.992218,7313.58,192.7,2.5,135.5,243.902886,1.226887
111.976651,40.992163,7313.9,199.7,2.5,135.5,237.539226,1.227641
111.976743,40.992093,7314.26,-151.4,2.4,135.5,235.002712,1.23136
111.976835,40.992023,7314.63,-142.4,2.3,135.5,233.690387,1.2351
111.976928,40.991952,7315.0,-133.5,2.3,135.5,237.485841,1.242202
111.97702,40.991881,7315.37,-124.6,2.2,135.6,241.281296,1.249057
111.977113,40.991811,7315.74,-115.6,2.1,135.6,245.07675,1.256151
111.977206,40.99174,7316.11,-106.7,2.0,135.6,248.872258,1.272476
111.977294,40.991673,7316.45,-98.1,2.0,135.6,250.145406,1.282636
111.977377,40.99161,7316.74,-90.1,1.9,135.6,247.418139,1.281447
111.97746,40.991546,7317.03,-82.1,1.8,135.5,244.690871,1.280897
111.977542,40.991483,7317.31,-74.1,1.7,135.5,242.380191,1.279775
111.977626,40.991419,7317.56,-66.1,1.7,135.4,244.458645,1.261838
111.977709,40.991356,7317.81,-58.0,1.7,135.4,246.536989,1.247719
111.977792,40.991292,7318.06,-50.0,1.6,135.3,248.615443,1.242121
111.977875,40.991228,7318.31,-41.9,1.6,135.3,250.693897,1.237691
111.977958,40.991165,7318.56,-33.9,1.6,135.2,252.772297,1.234466
111.978042,40.9911,7318.78,-25.8,1.6,135.1,251.24523,1.222605
111.978127,40.991036,7319.0,-17.6,1.7,135.1,249.669451,1.212435
111.978211,40.990972,7319.22,-9.5,1.7,135.0,248.093699,1.215018
