经度(°),纬度(°),高度(m),滚转(°),俯仰(°),航向(°),滚转率(°/s),转弯率(°/s)
111.893289,40.949595,10402.39,-179.3,-37.8,82.5,0.0,6.56398
111.893373,40.949604,10397.73,-179.3,-38.0,82.5,0.0,6.515321
111.893458,40.949612,10393.06,-179.3,-38.2,82.5,0.0,6.529407
111.893518,40.949618,10389.67,-179.3,-38.4,82.5,0.0,6.542825
111.893572,40.949623,10386.63,-179.3,-38.6,82.5,0.0,6.546293
111.893626,40.949629,10383.59,-179.3,-38.7,82.5,0.0,6.559175
111.893679,40.949634,10380.55,-179.3,-38.9,82.5,0.0,6.572916
111.893733,40.949639,10377.5,-179.3,-39.1,82.5,0.0,6.625193
111.893809,40.949647,10373.1,-179.3,-39.3,82.5,0.0,6.657896
111.893894,40.949655,10368.09,-179.3,-39.5,82.5,0.0,6.688878
111.89398,40.949664,10363.08,-179.3,-39.8,82.5,0.0,6.725613
111.894063,40.949672,10358.19,-179.3,-40.0,82.5,0.0,6.732145
111.89414,40.94968,10353.51,-179.3,-40.2,82.5,0.0,6.68549
111.894218,40.949687,10348.82,-179.3,-40.5,82.5,0.0,6.641894
111.894295,40.949695,10344.2,-179.3,-40.7,82.5,0.0,6.599998
111.894358,40.949701,10340.26,-179.3,-40.9,82.5,0.0,6.538578
111.894421,40.949707,10336.33,-179.3,-41.1,82.5,0.0,6.503582
111.894484,40.949714,10332.39,-179.3,-41.2,82.4,0.0,6.528002
111.894548,40.94972,10328.45,-179.3,-41.4,82.4,0.0,6.58742
111.894611,40.949726,10324.51,-179.3,-41.6,82.4,0.0,6.651871
111.894698,40.949735,10318.93,-179.3,-41.9,82.4,0.0,6.676298
111.894785,40.949743,10313.34,-179.3,-42.1,82.4,0.0,6.706704
111.894872,40.949752,10307.74,-179.3,-42.4,82.4,0.0,6.742469
111.89496,40.949761,10301.98,-179.3,-42.7,82.4,0.0,6.72559
111.895048,40.94977,10296.15,-179.3,-42.9,82.4,0.0,6.691423
111.895135,40.949778,10290.31,-179.3,-43.2,82.4,0.0,6.667099
111.895209,40.949786,10285.39,-179.3,-43.4,82.4,0.0,6.629634
111.89526,40.949791,10281.9,-179.3,-43.5,82.4,0.0,6.552221
111.895311,40.949796,10278.42,-179.3,-43.7,82.4,0.0,6.507163
111.895362,40.949801,10274.93,-179.3,-43.8,82.4,0.0,6.481605
111.895413,40.949806,10271.44,-179.3,-44.0,82.4,0.0,6.499515
111.895476,40.949812,10267.1,-179.3,-44.2,82.4,0.0,6.497206
111.895567,40.949821,10260.67,-179.3,-44.5,82.4,0.0,6.474082
111.895658,40.94983,10254.24,-179.3,-44.7,82.4,0.0,6.513363
111.895749,40.949839,10247.81,-179.3,-45.0,82.4,0.0,6.576836
111.89583,40.949847,10241.94,-179.3,-45.2,82.4,0.0,6.611458
111.895911,40.949855,10236.07,-179.3,-45.5,82.4,0.0,6.651592
111.895991,40.949863,10230.21,-179.3,-45.7,82.4,0.0,6.696853
111.89607,40.949871,10224.37,-179.3,-46.0,82.4,0.0,6.686037
111.896148,40.949879,10218.55,-179.3,-46.2,82.4,0.0,6.650771
111.896226,40.949887,10212.73,-179.3,-46.5,82.4,0.0,6.618952
111.896293,40.949894,10207.69,-179.3,-46.7,82.4,0.0,6.58719
111.896342,40.949899,10203.88,-179.3,-46.8,82.4,0.0,6.547553
111.896392,40.949903,10200.06,-179.3,-46.9,82.4,0.0,6.531271
111.896441,40.949908,10196.24,-179.3,-47.1,82.4,0.0,6.530478
111.896491,40.949913,10192.43,-179.3,-47.2,82.4,0.0,6.565544
111.896553,40.94992,10187.65,-179.3,-47.4,82.4,0.0,6.592441
111.896643,40.949928,10180.5,-179.3,-47.7,82.4,0.0,6.617064
111.896733,40.949937,10173.36,-179.3,-47.9,82.4,0.0,6.650749
111.896823,40.949947,10166.22,-179.3,-48.2,82.4,0.0,6.692314
111.896902,40.949954,10159.79,-179.3,-48.4,82.4,0.059996,6.634652
111.89698,40.949962,10153.36,-179.2,-48.7,82.3,0.120621,6.581219
111.897059,40.94997,10146.93,-179.2,-48.9,82.3,0.181219,6.533782
111.897118,40.949976,10142.03,-179.2,-49.1,82.3,0.199988,6.47607
111.897168,40.949981,10137.81,-179.2,-49.3,82.3,0.199988,6.407086
111.897218,40.949986,10133.59,-179.2,-49.4,82.3,0.199988,6.420016
111.897268,40.949991,10129.38,-179.2,-49.6,82.3,0.199988,6.45987
111.897319,40.949996,10125.16,-179.2,-49.7,82.3,0.199988,6.538157
111.897385,40.950003,10119.45,-179.2,-50.0,82.3,0.199988,6.588937
111.897463,40.950011,10112.71,-179.2,-50.2,82.3,0.199988,6.630389
111.897541,40.950019,10105.97,-179.2,-50.5,82.3,0.199988,6.678113
111.897618,40.950026,10099.25,-179.2,-50.8,82.3,0.199988,6.697728
111.897693,40.950034,10092.6,-179.2,-51.0,82.3,0.199988,6.638598
111.897767,40.950041,10085.95,-179.2,-51.2,82.3,0.199988,6.58248
111.897842,40.950049,10079.29,-179.2,-51.4,82.3,0.199988,6.529195
111.897916,40.950056,10072.45,-179.2,-51.6,82.3,0.139992,6.468494
111.897991,40.950064,10065.61,-179.2,-51.9,82.3,0.079367,6.429126
111.898066,40.950071,10058.77,-179.2,-52.1,82.3,0.018769,6.460641
111.898126,40.950077,10053.15,-179.2,-52.3,82.3,0.0,6.471339
111.89818,40.950083,10048.08,-179.2,-52.5,82.3,0.0,6.465825
111.898233,40.950088,10043.01,-179.2,-52.7,82.3,0.0,6.450935
111.898287,40.950094,10037.94,-179.2,-52.9,82.3,0.0,6.45636
111.898341,40.950099,10032.87,-179.2,-53.0,82.3,0.0,6.500326
111.898402,40.950105,10027.0,-179.2,-53.2,82.3,0.0,6.52327
111.898468,40.950112,10020.56,-179.2,-53.5,82.3,0.0,6.536977
111.898534,40.950119,10014.13,-179.2,-53.7,82.3,0.0,6.557108
111.898603,40.950126,10007.35,-179.2,-54.0,82.3,0.0,6.555315
111.89868,40.950133,9999.71,-179.2,-54.2,82.3,0.0,6.489419
111.898756,40.950141,9992.06,-179.2,-54.5,82.2,0.0,6.459499
111.898832,40.950149,9984.42,-179.2,-54.7,82.2,0.0,6.440058
111.898877,40.950153,9979.82,-179.2,-54.9,82.2,0.0,6.417251
111.898922,40.950158,9975.25,-179.2,-55.0,82.2,0.0,6.394861
111.898966,40.950162,9970.69,-179.2,-55.2,82.2,0.0,6.403472
111.89901,40.950167,9966.13,-179.2,-55.3,82.2,0.0,6.448555
111.899055,40.950172,9961.56,-179.2,-55.5,82.2,0.0,6.507524
111.899134,40.950179,9953.19,-179.2,-55.7,82.2,0.053958,6.509199
111.899217,40.950188,9944.35,-179.1,-56.0,82.2,0.114556,6.520328
111.8993,40.950196,9935.5,-179.1,-56.3,82.2,0.175181,6.548576
111.899375,40.950204,9927.38,-179.1,-56.5,82.2,0.200015,6.533722
111.899445,40.950211,9919.76,-179.1,-56.8,82.2,0.200015,6.489621
111.899514,40.950218,9912.13,-179.1,-57.0,82.2,0.200015,6.504256
111.899576,40.950225,9905.27,-179.1,-57.2,82.2,0.200015,6.513179
111.89962,40.950229,9900.27,-179.1,-57.4,82.2,0.200015,6.503049
111.899665,40.950234,9895.26,-179.1,-57.6,82.2,0.200015,6.497669
111.899709,40.950238,9890.26,-179.1,-57.7,82.2,0.200015,6.486678
111.899753,40.950243,9885.26,-179.1,-57.9,82.2,0.200015,6.494316
111.899803,40.950248,9879.58,-179.1,-58.1,82.2,0.200015,6.484106
111.899877,40.950255,9871.0,-179.1,-58.3,82.2,0.200015,6.437807
111.89995,40.950263,9862.43,-179.1,-58.6,82.2,0.200015,6.442118
111.900024,40.95027,9853.85,-179.1,-58.9,82.2,0.200015,6.477081
111.900081,40.950276,9846.97,-179.1,-59.1,82.2,0.146057,6.467299
111.900137,40.950282,9840.29,-179.1,-59.3,82.1,0.085459,6.479029
111.900192,40.950288,9833.62,-179.1,-59.5,82.1,0.024835,6.52942
111.900244,40.950293,9827.25,-179.1,-59.7,82.1,0.0,6.549664
111.900294,40.950298,9821.1,-179.1,-59.9,82.1,0.0,6.547096
111.900344,40.950303,9814.96,-179.1,-60.0,82.1,0.0,6.560663
111.900394,40.950308,9808.81,-179.1,-60.2,82.1,0.0,6.570983
111.900443,40.950313,9802.66,-179.1,-60.4,82.1,0.0,6.581183
111.900498,40.950319,9795.72,-179.1,-60.6,82.1,0.043904,6.560998
111.900554,40.950325,9788.58,-179.1,-60.8,82.1,0.099448,6.530078
111.90061,40.95033,9781.43,-179.0,-61.0,82.1,0.154991,6.576793
111.900668,40.950336,9773.99,-179.0,-61.2,82.1,0.199988,6.613604
111.900734,40.950343,9765.33,-179.0,-61.5,82.1,0.199988,6.602173
111.9008,40.95035,9756.67,-179.0,-61.7,82.1,0.199988,6.604007
111.900865,40.950357,9748.01,-179.0,-62.0,82.1,0.199988,6.618641
111.900915,40.950362,9741.29,-179.0,-62.2,82.1,0.199988,6.550596
111.900963,40.950367,9734.8,-179.0,-62.4,82.1,0.199988,6.493888
111.90101,40.950372,9728.32,-179.0,-62.5,82.0,0.199988,6.470599
111.901058,40.950377,9721.83,-179.0,-62.7,82.0,0.199988,6.471303
111.901107,40.950382,9715.14,-179.0,-62.9,82.0,0.199988,6.488711
111.901168,40.950388,9706.42,-179.0,-63.2,82.0,0.199988,6.500421
111.90123,40.950395,9697.7,-179.0,-63.4,82.0,0.199988,6.529535
111.901292,40.950401,9688.98,-179.0,-63.6,82.0,0.199988,6.608141
111.901348,40.950407,9680.88,-179.0,-63.9,82.0,0.199988,6.612035
111.901403,40.950413,9672.94,-179.0,-64.1,82.0,0.199988,6.602872
111.901457,40.950418,9665.0,-178.9,-64.3,82.0,0.199988,6.602329
111.90151,40.950424,9657.27,-178.9,-64.5,82.0,0.199988,6.593811
111.901555,40.950429,9650.45,-178.9,-64.7,82.0,0.199988,6.518639
111.9016,40.950433,9643.62,-178.9,-64.9,82.0,0.199988,6.485328
111.901645,40.950438,9636.8,-178.9,-65.1,81.9,0.199988,6.464103
111.901691,40.950443,9629.97,-178.9,-65.3,81.9,0.199988,6.489774
111.901741,40.950448,9622.18,-178.9,-65.5,81.9,0.199988,6.514808
111.901801,40.950454,9612.86,-178.9,-65.8,81.9,0.199988,6.535167
111.90186,40.95046,9603.55,-178.9,-66.1,81.9,0.199988,6.577919
111.901919,40.950467,9594.29,-178.9,-66.3,81.9,0.199988,6.633146
111.901974,40.950472,9585.47,-178.9,-66.6,81.9,0.199988,6.650884
111.902028,40.950478,9576.65,-178.9,-66.8,81.9,0.199988,6.672236
111.902082,40.950484,9567.83,-178.9,-67.0,81.9,0.199988,6.697276
111.902133,40.950489,9559.32,-178.9,-67.3,81.9,0.199988,6.685559
111.902184,40.950494,9550.89,-178.9,-67.5,81.9,0.199988,6.667385
111.902234,40.9505,9542.46,-178.8,-67.7,81.8,0.200015,6.653312
111.902281,40.950505,9534.51,-178.8,-67.9,81.8,0.200015,6.635835
111.902315,40.950508,9528.59,-178.8,-68.1,81.8,0.200015,6.583258
111.902349,40.950512,9522.67,-178.8,-68.2,81.8,0.200015,6.570145
111.902383,40.950516,9516.75,-178.8,-68.4,81.8,0.200015,6.566105
111.902417,40.950519,9510.82,-178.8,-68.5,81.8,0.200015,6.607348
111.902458,40.950523,9503.57,-178.8,-68.7,81.8,0.200015,6.634185
111.90251,40.950529,9494.22,-178.8,-68.9,81.8,0.200015,6.640837
111.902562,40.950534,9484.88,-178.8,-69.2,81.8,0.200015,6.653191
111.902614,40.95054,9475.38,-178.8,-69.4,81.8,0.205479,6.664529
111.902674,40.950546,9464.27,-178.8,-69.7,81.8,0.266077,6.615654
111.902733,40.950553,9453.15,-178.7,-70.0,81.7,0.326674,6.578533
111.902792,40.950559,9442.04,-178.7,-70.2,81.7,0.387272,6.553376
111.902828,40.950563,9435.06,-178.7,-70.4,81.7,0.356099,6.520599
111.902858,40.950566,9429.17,-178.7,-70.6,81.7,0.300556,6.47952
111.902888,40.950569,9423.28,-178.7,-70.7,81.7,0.244985,6.489506
111.902918,40.950572,9417.39,-178.7,-70.9,81.7,0.199988,6.499127
111.902949,40.950576,9411.5,-178.7,-71.1,81.7,0.199988,6.536366
111.902989,40.95058,9403.34,-178.7,-71.2,81.7,0.241816,6.571116
111.903034,40.950585,9394.17,-178.6,-71.5,81.6,0.302413,6.606514
111.903079,40.95059,9385.0,-178.6,-71.7,81.6,0.363038,6.641789
111.903127,40.950595,9375.23,-178.6,-71.9,81.6,0.400003,6.656997
111.903177,40.9506,9364.53,-178.6,-72.2,81.6,0.400003,6.643901
111.903228,40.950606,9353.83,-178.6,-72.5,81.5,0.400003,6.634266
111.903278,40.950611,9343.23,-178.6,-72.7,81.5,0.400003,6.62422
111.903321,40.950616,9333.65,-178.6,-72.9,81.5,0.400003,6.579078
111.903364,40.950621,9324.08,-178.5,-73.1,81.5,0.400003,6.539137
111.903407,40.950625,9314.51,-178.5,-73.4,81.5,0.400003,6.504288
111.903441,40.950629,9306.87,-178.5,-73.5,81.5,0.430985,6.457971
111.903472,40.950632,9299.75,-178.5,-73.7,81.5,0.470218,6.406066
111.903503,40.950636,9292.62,-178.4,-73.9,81.4,0.509423,6.423403
111.903533,40.950639,9285.49,-178.4,-74.1,81.4,0.548655,6.443877
111.903564,40.950642,9278.37,-178.4,-74.2,81.4,0.587861,6.505115
111.903603,40.950647,9269.01,-178.4,-74.5,81.4,0.600018,6.547506
111.903646,40.950651,9258.66,-178.3,-74.7,81.3,0.600018,6.587827
111.903689,40.950656,9248.31,-178.3,-75.0,81.3,0.599991,6.63397
111.903729,40.95066,9238.42,-178.3,-75.2,81.3,0.599991,6.647593
111.903765,40.950665,9229.25,-178.3,-75.4,81.3,0.599991,6.604716
111.903801,40.950668,9220.09,-178.3,-75.6,81.3,0.599991,6.564014
111.903836,40.950672,9211.1,-178.3,-75.8,81.3,0.598051,6.522415
111.903863,40.950675,9203.85,-178.3,-76.0,81.3,0.576687,6.445784
111.903891,40.950679,9196.6,-178.3,-76.2,81.3,0.555294,6.387768
111.903918,40.950682,9189.36,-178.2,-76.3,81.2,0.53393,6.379893
111.903945,40.950685,9182.11,-178.2,-76.5,81.2,0.529422,6.437001
111.903972,40.950688,9174.86,-178.2,-76.7,81.2,0.529422,6.508484
111.904008,40.950691,9164.99,-178.2,-76.9,81.1,0.550595,6.552698
111.904043,40.950695,9155.09,-178.1,-77.1,81.1,0.57196,6.599941
111.904078,40.950699,9145.19,-178.1,-77.3,81.0,0.59338,6.650438
111.904116,40.950704,9134.16,-178.1,-77.6,81.0,0.641819,6.629863
111.904155,40.950708,9122.63,-178.0,-77.9,80.9,0.702417,6.58544
111.904194,40.950713,9111.1,-177.9,-78.1,80.9,0.763041,6.551745
111.90423,40.950717,9100.06,-177.9,-78.4,80.9,0.823639,6.508099
111.904263,40.95072,9089.79,-177.9,-78.6,80.9,0.884236,6.436692
111.904296,40.950724,9079.51,-177.8,-78.9,80.8,0.944861,6.416472
111.904328,40.950728,9069.54,-177.8,-79.1,80.8,0.999994,6.426519
111.904348,40.95073,9062.71,-177.8,-79.2,80.8,0.999994,6.426811
111.904369,40.950733,9055.87,-177.8,-79.4,80.7,0.999994,6.420288
111.90439,40.950735,9049.04,-177.7,-79.5,80.7,0.999994,6.414364
111.90441,40.950737,9042.2,-177.7,-79.7,80.6,0.999994,6.445561
111.904431,40.95074,9035.37,-177.7,-79.8,80.6,0.999994,6.483336
111.904462,40.950743,9024.38,-177.6,-80.0,80.5,1.060018,6.514315
111.904494,40.950747,9013.36,-177.6,-80.3,80.5,1.120615,6.549721
111.904525,40.950751,9002.33,-177.5,-80.5,80.4,1.181213,6.589365
111.904555,40.950754,8991.24,-177.4,-80.8,80.4,1.24181,6.562324
111.904584,40.950758,8980.12,-177.3,-81.0,80.3,1.302435,6.509453
111.904614,40.950761,8969.0,-177.3,-81.3,80.2,1.363033,6.463235
111.904639,40.950764,8959.46,-177.2,-81.5,80.2,1.406964,6.419721
111.904657,40.950766,8952.4,-177.1,-81.6,80.1,1.424805,6.369774
111.904674,40.950768,8945.34,-177.1,-81.8,80.1,1.442591,6.365122
111.904691,40.95077,8938.28,-177.1,-81.9,80.0,1.462371,6.388939
111.904709,40.950772,8931.21,-177.0,-82.1,79.9,1.501576,6.447338
111.90473,40.950775,8922.63,-177.0,-82.3,79.9,1.588374,6.489002
111.904758,40.950778,8910.32,-176.8,-82.6,79.8,1.791559,6.511168
111.904786,40.950782,8898.0,-176.7,-82.8,79.7,1.99477,6.542461
111.904815,40.950785,8885.69,-176.6,-83.1,79.6,2.197982,6.582513
111.904839,40.950788,8874.05,-176.5,-83.3,79.4,2.319997,6.532569
111.904864,40.950791,8862.42,-176.4,-83.6,79.3,2.441219,6.490034
111.904888,40.950794,8850.79,-176.2,-83.8,79.1,2.562414,6.456181
111.904905,40.950797,8842.36,-176.1,-84.0,79.0,2.609843,6.401275
111.904919,40.950798,8835.36,-176.0,-84.1,78.9,2.624104,6.328318
111.904932,40.9508,8828.36,-175.9,-84.3,78.8,2.638365,6.312852
111.904946,40.950802,8821.37,-175.8,-84.4,78.7,2.692952,6.310299
111.904959,40.950803,8814.37,-175.7,-84.5,78.6,2.810596,6.325114
111.904977,40.950806,8804.41,-175.6,-84.7,78.5,3.098638,6.323557
111.904999,40.950808,8792.39,-175.3,-85.0,78.3,3.505062,6.32292
111.90502,40.950811,8780.36,-175.1,-85.2,78.1,3.911458,6.385126
111.90504,40.950814,8768.77,-174.8,-85.5,77.8,4.287883,6.436045
111.905057,40.950816,8758.21,-174.5,-85.7,77.5,4.590925,6.451525
111.905074,40.950818,8747.65,-174.3,-86.0,77.3,4.89394,6.471991
111.905091,40.95082,8737.08,-174.0,-86.2,77.0,5.196954,6.49728
111.905108,40.950823,8724.97,-173.5,-86.4,76.5,5.920025,6.446829
111.905125,40.950825,8712.84,-173.0,-86.7,76.0,6.647304,6.402435
111.905143,40.950828,8700.71,-172.6,-86.9,75.6,7.374555,6.365064
111.905154,40.950829,8692.08,-172.1,-87.1,75.1,8.087108,6.317053
111.905163,40.950831,8685.03,-171.6,-87.2,74.6,8.792967,6.256471
111.905172,40.950832,8677.97,-171.2,-87.4,74.2,9.498826,6.240882
111.905181,40.950833,8670.92,-170.7,-87.5,73.7,10.204712,6.248497
111.90519,40.950834,8663.86,-170.3,-87.6,73.3,10.910599,6.29299
111.905202,40.950836,8653.65,-169.2,-87.8,72.2,12.809173,6.319621
111.905215,40.950838,8641.25,-167.5,-88.1,70.5,15.536467,6.343376
111.905229,40.95084,8628.85,-165.9,-88.3,68.9,18.263707,6.375188
111.905242,40.950842,8616.62,-163.5,-88.6,66.5,22.608145,6.383949
111.905252,40.950844,8604.81,-159.1,-88.8,62.1,30.911169,6.322026
111.905263,40.950846,8593.0,-154.7,-89.0,57.7,39.214192,6.263532
111.905274,40.950848,8581.2,-150.2,-89.2,53.2,47.517216,6.208647
111.90528,40.950848,8573.88,-137.4,-89.3,40.4,72.303044,6.149111
111.905285,40.950849,8566.6,-124.4,-89.4,27.4,97.2549,6.094174
111.905291,40.95085,8559.33,-111.4,-89.4,14.4,122.206728,6.078101
111.905296,40.950851,8552.05,-98.5,-89.5,1.5,147.205303,6.104415
111.905302,40.950852,8544.78,-85.5,-89.6,348.5,172.224873,6.148894
111.905309,40.950854,8533.25,-68.3,-89.5,331.3,205.729041,6.166785
111.905316,40.950855,8521.19,-50.6,-89.3,313.5,240.281629,6.188897
111.905323,40.950857,8509.13,-32.9,-89.2,295.8,274.834217,6.218232
111.90533,40.950858,8496.49,-23.4,-89.0,286.3,291.50313,6.216308
111.905335,40.950859,8483.44,-19.7,-88.7,282.6,295.745552,6.191714
111.905341,40.950861,8470.39,-15.9,-88.5,278.8,299.987974,6.170168
111.905346,40.950862,8458.08,-13.0,-88.2,275.9,301.101759,6.145137
111.905349,40.950863,8447.57,-11.8,-88.1,274.7,294.556307,6.106609
111.905352,40.950864,8437.06,-10.7,-87.9,273.6,288.010854,6.070495
111.905355,40.950865,8426.55,-9.5,-87.7,272.4,281.465375,6.03687
111.905356,40.950865,8418.26,-9.0,-87.5,271.9,256.669083,5.971907
111.905357,40.950866,8410.0,-8.6,-87.4,271.5,231.688732,5.915083
111.905358,40.950866,8401.73,-8.1,-87.2,271.0,206.708367,5.907356
111.905359,40.950867,8393.46,-7.6,-87.1,270.5,181.728002,5.944209
111.90536,40.950868,8385.19,-7.2,-86.9,270.1,156.747651,6.000461
111.90536,40.950868,8373.79,-6.7,-86.7,269.6,123.200343,6.02609
111.90536,40.950869,8362.01,-6.3,-86.4,269.2,88.594274,6.05372
111.905359,40.95087,8350.22,-5.9,-86.2,268.8,53.988216,6.086842
111.905358,40.95087,8338.29,-5.5,-86.0,268.4,35.723587,6.072588
111.905355,40.950871,8326.25,-5.3,-85.8,268.2,28.814499,6.025319
111.905353,40.950871,8314.21,-5.0,-85.6,267.9,21.905407,5.981311
111.905351,40.950872,8303.27,-4.8,-85.4,267.7,16.41169,5.937352
111.905348,40.950872,8295.02,-4.6,-85.2,267.5,14.38318,5.883208
111.905345,40.950872,8286.78,-4.5,-85.0,267.4,12.35467,5.866902
111.905342,40.950872,8278.53,-4.3,-84.9,267.2,10.326161,5.853038
111.905339,40.950872,8270.29,-4.2,-84.7,267.1,9.645887,5.901286
111.905336,40.950873,8261.33,-4.1,-84.6,267.0,8.984647,5.94149
111.905329,40.950873,8249.32,-3.9,-84.3,266.8,8.346503,5.961997
111.905323,40.950873,8237.3,-3.8,-84.1,266.7,7.708359,5.989197
111.905317,40.950873,8225.29,-3.6,-83.9,266.5,7.070216,6.022797
111.90531,40.950873,8213.61,-3.5,-83.7,266.4,6.460628,6.027733
111.905302,40.950873,8201.98,-3.4,-83.5,266.3,5.854571,6.026668
111.905295,40.950873,8190.34,-3.2,-83.3,266.1,5.248514,6.023497
111.905286,40.950873,8178.5,-3.1,-83.1,266.0,4.785487,5.992631
111.905276,40.950873,8166.52,-3.1,-82.8,266.0,4.421857,5.945574
111.905267,40.950873,8154.54,-3.0,-82.6,265.9,4.058226,5.901162
111.905258,40.950872,8143.66,-2.9,-82.4,265.8,3.754552,5.861159
111.90525,40.950872,8135.47,-2.8,-82.2,265.7,3.597677,5.82441
111.905242,40.950872,8127.29,-2.8,-82.1,265.7,3.440803,5.840232
111.905234,40.950872,8119.11,-2.7,-81.9,265.6,3.283929,5.862326
111.905226,40.950871,8110.93,-2.6,-81.8,265.5,3.127053,5.919961
111.905217,40.950871,8101.81,-2.6,-81.7,265.5,2.965443,5.967334
111.905203,40.950871,8088.71,-2.5,-81.4,265.4,2.783635,5.996654
111.905188,40.95087,8075.61,-2.5,-81.2,265.4,2.601828,6.033229
111.905173,40.950869,8062.51,-2.4,-80.9,265.3,2.420021,6.07675
111.905158,40.950869,8050.5,-2.3,-80.7,265.2,2.292135,6.053006
111.905143,40.950868,8038.62,-2.3,-80.4,265.2,2.170913,6.024596
111.905128,40.950867,8026.74,-2.2,-80.2,265.1,2.049692,6.000679
111.905115,40.950866,8016.67,-2.2,-80.0,265.1,1.941886,5.965529
111.905102,40.950866,8007.86,-2.1,-79.8,265.0,1.843401,5.925178
111.905089,40.950865,7999.06,-2.1,-79.7,265.0,1.744917,5.953159
111.905077,40.950864,7990.25,-2.1,-79.5,265.0,1.665046,5.987605
111.905064,40.950864,7981.44,-2.0,-79.3,264.9,1.630745,6.057399
111.905046,40.950863,7970.15,-2.0,-79.1,264.9,1.574493,6.079232
111.905027,40.950862,7958.19,-2.0,-78.9,264.8,1.512405,6.09543
111.905008,40.950861,7946.23,-1.9,-78.6,264.7,1.450318,6.118388
111.904989,40.950859,7934.41,-1.9,-78.4,264.7,1.400021,6.145162
111.904969,40.950858,7923.15,-1.8,-78.1,264.7,1.400005,6.160687
111.904949,40.950857,7911.9,-1.8,-77.9,264.6,1.399989,6.173139
111.90493,40.950856,7900.64,-1.7,-77.7,264.6,1.399972,6.182479
111.904906,40.950854,7888.18,-1.7,-77.5,264.6,1.346036,6.161593
111.904882,40.950853,7875.57,-1.6,-77.2,264.5,1.285434,6.142782
111.904858,40.950851,7862.96,-1.6,-77.0,264.5,1.224831,6.130157
